0	6.86951E-06	-0.00320215	6.86951E-10	3.20215E-07	0	5	0	
0.000166667	-0.0103008	-0.00973877	6.64147E-05	0.000125569	0	5	0	
0.000333333	0.0211702	0.023337	0.000179204	0.000263704	0	5	0	
0.0005	-0.0240496	-0.0140467	0.000322613	0.00038069	0	5	0	
0.000666667	0.0186023	-0.0126977	0.000390583	0.000434415	0	5	0	
0.000833333	-0.0143666	0.00883509	0.000385276	0.000353161	0	5	0	
0.001	0.0124254	0.0263339	0.000338173	0.000438624	0	5	0	
0.00116667	-0.0133492	-0.0445333	0.000301865	0.000479648	0	5	0	
0.00133333	0.0138517	0.0121405	0.000308813	0.000664008	0	5	0	
0.0015	-0.0155589	-0.00107504	0.000349948	0.000617483	0	5	0	
0.00166667	0.0175861	0.0174836	0.000410961	0.000458871	0	5	0	
0.00183333	-0.0175684	-0.0184172	0.00044466	0.000344927	0	5	0	
0.002	0.0121509	-0.00646506	0.000433964	0.000347297	0	5	0	
0.00216667	-0.0101404	0.00238446	0.000390485	0.000356537	0	5	0	
0.00233333	0.0170949	0.0255453	0.00038301	0.000550542	0	5	0	
0.0025	-0.0231251	-0.0431878	0.000417724	0.000658976	0	5	0	
0.00266667	0.0215548	0.0227322	0.000462071	0.00078144	0	5	0	
0.00283333	-0.0186689	0.000898548	0.000463275	0.000567	0	5	0	
0.003	0.0185088	0.00171955	0.000444446	0.000347862	0	5	0	
0.00316667	-0.0194553	-0.0153557	0.000437939	0.000293316	0	5	0	
0.00333333	0.0206592	0.0221798	0.000453333	0.000300151	0	5	0	
0.0035	-0.0198607	-0.00861174	0.000465077	0.000355705	0	5	0	
0.00366667	0.0203683	0.00206486	0.000471609	0.000278924	0	5	0	
0.00383333	-0.0240809	-0.00785739	0.000488015	0.000204162	0	5	0	
0.004	0.0261168	0.0156113	0.000513537	0.000180111	0	5	0	
0.00416667	-0.0214195	-0.00876926	0.000510299	0.000193745	0	5	0	
0.00433333	0.0163449	-0.000299763	0.000461947	0.000191816	0	5	0	
0.0045	-0.0142989	-0.0013808	0.000397227	0.000139118	0	5	0	
0.00466667	0.0173418	0.0094545	0.000358413	0.000140723	0	5	0	
0.00483333	-0.0202902	-0.0111638	0.000372389	0.000180804	0	5	0	
0.005	0.0231731	0.00678268	0.000412439	0.000214838	0	5	0	
0.00516667	-0.0218009	-0.00250621	0.000455213	0.000168788	0	5	0	
0.00533333	0.021296	0.00166813	0.000474338	0.000142419	0	5	0	
0.0055	-0.023264	-0.00606824	0.00049005	0.000138378	0	5	0	
0.00566667	0.0266968	0.00435947	0.000507985	0.000154263	0	5	0	
0.00583333	-0.0274434	-0.0051414	0.0005376	0.000132953	0	5	0	
0.006	0.026191	0.00445833	0.000546922	0.000115774	0	5	0	
0.00616667	-0.0216307	-0.00678669	0.000530141	0.000117092	0	5	0	
0.00633333	0.0137731	0.00731352	0.000465587	0.000143338	0	5	0	
0.0065	-0.0102732	-0.0069775	0.000379364	0.000143619	0	5	0	
0.00666667	0.011659	0.00526092	0.000342123	0.000139299	0	5	0	
0.00683333	-0.0200972	-0.00676477	0.00039664	0.000138912	0	5	0	
0.007	0.0287875	0.00332234	0.000506926	0.000137738	0	5	0	
0.00716667	-0.0285741	-0.00157859	0.000579308	0.000112407	0	5	0	
0.00733333	0.0213419	0.00304286	0.000562437	8.39743E-05	0	5	0	
0.0075	-0.0210522	-0.00413687	0.000490219	7.02987E-05	0	5	0	
0.00766667	0.0211706	0.00156589	0.000432995	8.21939E-05	0	5	0	
0.00783333	-0.0197438	0.00087472	0.000402801	6.95953E-05	0	5	0	
0.008	0.0211736	0.00202584	0.00041168	0.000110662	0	5	0	
0.00816667	-0.0217613	-0.0112204	0.000421131	0.000192039	0	5	0	
0.00833333	0.0191	0.0171608	0.000431668	0.000281587	0	5	0	
0.0085	-0.0260671	-0.0128652	0.000453373	0.000304578	0	5	0	
0.00866667	0.0393973	-0.00959447	0.000523566	0.00037803	0	5	0	
0.00883333	-0.0323058	0.0437358	0.000600118	0.00048092	0	5	0	
0.009	0.00343979	-0.0476679	0.000613624	0.000685387	0	5	0	
0.00916667	0.00566518	-0.00372172	0.000414696	0.00106108	0	5	0	
0.00933333	0.0172673	0.0472652	0.000421057	0.00140011	0	5	0	
0.0095	-0.0350592	-0.0361088	0.000466862	0.0013721	0	5	0	
0.00966667	0.0288096	0.00386931	0.00064208	0.000934744	0	5	0	
0.00983333	-0.0314506	-0.00639802	0.000616849	0.000452302	0	5	0	
0.01	0.0443706	0.00922848	0.000640412	0.00024005	0	5	0	
0.0101667	-0.0355636	0.0275548	0.000689776	0.000373596	0	5	0	
0.0103333	0.0134602	-0.0728811	0.000699376	0.00066756	0	5	0	
0.0105	-0.0143229	0.0563637	0.000559287	0.00101891	0	5	0	
0.0106667	0.0373948	-0.0162922	0.00051515	0.00111011	0	5	0	
0.0108333	-0.0474075	0.018858	0.000580848	0.000901587	0	5	0	
0.011	0.0293624	-0.0480668	0.000719027	0.000710447	0	5	0	
0.0111667	-0.0114636	0.0283813	0.000658438	0.00063929	0	5	0	
0.0113333	0.0188646	0.0309893	0.000510838	0.000913387	0	5	0	
0.0115	-0.0353434	-0.0504527	0.000494774	0.000922911	0	5	0	
0.0116667	0.0395619	0.00826953	0.00060996	0.00105257	0	5	0	
0.0118333	-0.0318884	0.0301153	0.000713831	0.00101747	0	5	0	
0.012	0.0260929	-0.011092	0.000673084	0.000899377	0	5	0	
0.0121667	-0.0261698	-0.0164988	0.000578578	0.000631002	0	5	0	
0.0123333	0.0236746	0.0131986	0.000509667	0.000341523	0	5	0	
0.0125	-0.0182228	0.00900348	0.000457006	0.000423397	0	5	0	
0.0126667	0.0170216	-0.00836772	0.000419899	0.000342971	0	5	0	
0.0128333	-0.0224104	-0.00985366	0.000407794	0.000373377	0	5	0	
0.013	0.027322	0.0182095	0.000444916	0.000284107	0	5	0	
0.0131667	-0.0274296	-0.00482057	0.000491357	0.000307044	0	5	0	
0.0133333	0.0231296	-0.00527575	0.00050615	0.000243358	0	5	0	
0.0135	-0.0238488	-0.00387204	0.000487085	0.000196766	0	5	0	
0.0136667	0.0289575	0.0160632	0.0004958	0.00019874	0	5	0	
0.0138333	-0.0327484	-0.00819879	0.000526597	0.000205897	0	5	0	
0.014	0.0287051	-0.00504865	0.000567599	0.000234311	0	5	0	
0.0141667	-0.0189872	0.000841785	0.000541112	0.00019011	0	5	0	
0.0143333	0.0136512	0.0177273	0.000454895	0.000268604	0	5	0	
0.0145	-0.0197657	-0.028047	0.000388981	0.000312128	0	5	0	
0.0146667	0.0259515	0.0124545	0.000402942	0.000448401	0	5	0	
0.0148333	-0.024119	0.00784895	0.000454165	0.000446435	0	5	0	
0.015	0.0175243	-0.00427157	0.000465995	0.000353134	0	5	0	
0.0151667	-0.0204675	-0.00429427	0.000441343	0.000257575	0	5	0	
0.0153333	0.0300848	0.00694952	0.00046288	0.000168257	0	5	0	
0.0155	-0.0273029	-0.0214818	0.000502654	0.000260846	0	5	0	
0.0156667	0.0138111	0.0476072	0.000493001	0.00044197	0	5	0	
0.0158333	-0.0142689	-0.0527568	0.000419362	0.000691749	0	5	0	
0.016	0.0243675	0.0451831	0.000402673	0.000881944	0	5	0	
0.0161667	-0.0212733	-0.0255302	0.000411232	0.000903113	0	5	0	
0.0163333	0.0108913	0.00870583	0.000405688	0.000798583	0	5	0	
0.0165	-0.0116043	-0.00138114	0.000330025	0.000568809	0	5	0	
0.0166667	0.020187	0.0098534	0.00032321	0.000420399	0	5	0	
0.0168333	-0.0225145	-0.0239227	0.000352247	0.000475763	0	5	0	
0.017	0.0150852	0.030305	0.000385653	0.000646995	0	5	0	
0.0171667	-0.0114371	-0.0250076	0.000336337	0.000745705	0	5	0	
0.0173333	0.0203902	0.0270365	0.000313062	0.000695464	0	5	0	
0.0175	-0.0288529	-0.0235699	0.0003536	0.000628336	0	5	0	
0.0176667	0.0267636	0.0106357	0.000439854	0.000518329	0	5	0	
0.0178333	-0.0221349	-0.00330202	0.000488212	0.000375433	0	5	0	
0.018	0.0202552	0.00379317	0.000469748	0.00029016	0	5	0	
0.0181667	-0.022137	-0.0113009	0.000433054	0.000266963	0	5	0	
0.0183333	0.0270557	0.00742152	0.000433274	0.000264178	0	5	0	
0.0185	-0.0298181	0.00649381	0.000473563	0.000205428	0	5	0	
0.0186667	0.0283209	-0.0113205	0.000524355	0.000154528	0	5	0	
0.0188333	-0.0277283	0.00226688	0.000544442	0.000192286	0	5	0	
0.019	0.0277804	0.00623753	0.000539509	0.000257028	0	5	0	
0.0191667	-0.0267557	-0.00744539	0.000526968	0.000255624	0	5	0	
0.0193333	0.0250045	0.00114598	0.000518983	0.000183994	0	5	0	
0.0195	-0.0242124	0.000910784	0.000497656	9.99218E-05	0	5	0	
0.0196667	0.0262489	0.00176749	0.000487147	9.65332E-05	0	5	0	
0.0198333	-0.0258026	-0.00191851	0.000479573	0.000100748	0	5	0	
0.02	0.0226572	-0.000897541	0.000478803	0.000103164	0	5	0	
0.0201667	-0.0224074	0.00169503	0.000462325	8.85267E-05	0	5	0	
0.0203333	0.0228471	0.000394857	0.000451193	8.58725E-05	0	5	0	
0.0205	-0.0222408	-0.00279476	0.000439759	9.26649E-05	0	5	0	
0.0206667	0.023656	0.00530894	0.000443648	8.53658E-05	0	5	0	
0.0208333	-0.0276918	-0.000570702	0.000454983	8.38725E-05	0	5	0	
0.021	0.0294592	-0.00295756	0.00048839	6.06402E-05	0	5	0	
0.0211667	-0.0249224	-0.000935827	0.000513143	9.32118E-05	0	5	0	
0.0213333	0.0198326	0.00700326	0.00050207	0.000132814	0	5	0	
0.0215	-0.0200562	-0.00560394	0.000451397	0.000176662	0	5	0	
0.0216667	0.0200444	0.004733	0.000405887	0.000171013	0	5	0	
0.0218333	-0.0171129	-0.00586758	0.000384495	0.000175641	0	5	0	
0.022	0.0165125	0.00892889	0.000376457	0.000196763	0	5	0	
0.0221667	-0.0196415	-0.00392716	0.000365562	0.0001936	0	5	0	
0.0223333	0.0225759	-0.00156616	0.000374444	0.000131177	0	5	0	
0.0225	-0.0246257	-0.00172514	0.000406155	9.38517E-05	0	5	0	
0.0226667	0.0256684	0.00663794	0.00044636	0.000100073	0	5	0	
0.0228333	-0.027015	-0.00430971	0.000473952	0.000125705	0	5	0	
0.023	0.0279276	0.00301945	0.000499949	0.000110287	0	5	0	
0.0231667	-0.0257421	-0.00736701	0.000515919	9.76519E-05	0	5	0	
0.0233333	0.0222159	0.007901	0.000506019	0.000109021	0	5	0	
0.0235	-0.0214512	-0.00549444	0.000472839	0.000130546	0	5	0	
0.0236667	0.023156	0.00332473	0.000442772	0.00013042	0	5	0	
0.0238333	-0.0271491	-0.00209058	0.00044662	0.000101219	0	5	0	
0.024	0.0275723	0.00553767	0.000475066	8.19404E-05	0	5	0	
0.0241667	-0.0241455	-0.00645973	0.00049546	8.02613E-05	0	5	0	
0.0243333	0.0217387	0.0061714	0.00048427	0.000108931	0	5	0	
0.0245	-0.0225674	-0.00748617	0.00045594	0.000132138	0	5	0	
0.0246667	0.0242764	0.0145251	0.000442888	0.000170184	0	5	0	
0.0248333	-0.030448	-0.0137689	0.000477213	0.000221488	0	5	0	
0.025	0.0357927	0.00316765	0.0005367	0.000346324	0	5	0	
0.0251667	-0.0248069	0.00871443	0.000583465	0.000426885	0	5	0	
0.0253333	0.00697878	0.00500829	0.000531957	0.000358637	0	5	0	
0.0255	-0.0141834	-0.0221445	0.000426965	0.00032733	0	5	0	
0.0256667	0.0385013	0.0313302	0.000447529	0.000338602	0	5	0	
0.0258333	-0.043202	-0.026494	0.000570532	0.000482735	0	5	0	
0.026	0.0304688	0.0227052	0.000706426	0.000523991	0	5	0	
0.0261667	-0.024486	-0.01878	0.000672904	0.000517276	0	5	0	
0.0263333	0.0218628	0.00608634	0.000580211	0.000472014	0	5	0	
0.0265	-0.0118054	0.00866169	0.000487056	0.000383988	0	5	0	
0.0266667	0.00872872	-0.00543182	0.000395099	0.000282185	0	5	0	
0.0268333	-0.0183177	-0.0152426	0.00033547	0.000307787	0	5	0	
0.027	0.0339692	0.0226762	0.000375799	0.000351875	0	5	0	
0.0271667	-0.0424998	-0.00959411	0.000517031	0.000399478	0	5	0	
0.0273333	0.033285	0.00163021	0.000661092	0.000276865	0	5	0	
0.0275	-0.01708	-0.00828494	0.000680523	0.00019066	0	5	0	
0.0276667	0.0174224	0.00462019	0.000575353	0.000120571	0	5	0	
0.0278333	-0.0300517	0.0018406	0.000486066	0.00014284	0	5	0	
0.028	0.0339699	-0.00741065	0.000486113	0.000127119	0	5	0	
0.0281667	-0.0264364	0.00881843	0.000555813	0.000148802	0	5	0	
0.0283333	0.023917	-0.00352823	0.000564818	0.000152667	0	5	0	
0.0285	-0.0299853	-0.000956059	0.000536237	0.000125994	0	5	0	
0.0286667	0.0289614	-0.000785256	0.000533971	0.000110522	0	5	0	
0.0288333	-0.0241824	-0.000670069	0.000549697	0.000109425	0	5	0	
0.029	0.0220555	0.00123545	0.000538193	0.00016714	0	5	0	
0.0291667	-0.0221245	0.00356381	0.00048957	0.000218953	0	5	0	
0.0293333	0.0238974	-0.00137629	0.000456253	0.000244704	0	5	0	
0.0295	-0.0276674	-0.00531725	0.0004614	0.000216469	0	5	0	
0.0296667	0.0284193	0.0114352	0.000494284	0.000183819	0	5	0	
0.0298333	-0.0272711	-0.0109681	0.000519477	0.000196289	0	5	0	
0.03	0.0257679	0.00965988	0.000527247	0.000266027	0	5	0	
0.0301667	-0.023057	-0.0116074	0.000507475	0.000309734	0	5	0	
0.0303333	0.0188583	0.0180777	0.000470432	0.000326954	0	5	0	
0.0305	-0.0162607	-0.0196988	0.000410674	0.000346075	0	5	0	
0.0306667	0.0207099	0.0164221	0.000374445	0.000373332	0	5	0	
0.0308333	-0.0332424	-0.00610431	0.000417729	0.000410807	0	5	0	
0.031	0.0431392	-0.00796881	0.000538555	0.000402198	0	5	0	
0.0311667	-0.0356321	0.00941408	0.000671118	0.000313578	0	5	0	
0.0313333	0.014638	0.00612624	0.000743533	0.000321546	0	5	0	
0.0315	-0.0046511	-0.0248215	0.000659093	0.00044282	0	5	0	
0.0316667	0.0113845	0.0393481	0.000466564	0.000636888	0	5	0	
0.0318333	-0.0178005	-0.0381269	0.000316821	0.000702817	0	5	0	
0.032	0.0202349	0.0189463	0.000284721	0.000681407	0	5	0	
0.0321667	-0.0298109	0.00114216	0.000359325	0.000608128	0	5	0	
0.0323333	0.0331741	-0.00721675	0.000539089	0.000449632	0	5	0	
0.0325	-0.00266366	0.00325045	0.000873869	0.000263158	0	5	0	
0.0326667	-0.0207632	-0.00372373	0.00112666	0.000165115	0	5	0	
0.0328333	0.00553389	-0.00655478	0.000976106	0.000197665	0	5	0	
0.033	0.0254406	0.0121243	0.000613562	0.000268554	0	5	0	
0.0331667	-0.0498113	-0.00430909	0.000446712	0.000257831	0	5	0	
0.0333333	0.0646945	-0.00262184	0.000683551	0.000180519	0	5	0	
0.0335	-0.0561803	-0.00182021	0.00104638	8.82783E-05	0	5	0	
0.0336667	0.0394701	0.000597032	0.00123388	5.79499E-05	0	5	0	
0.0338333	-0.024322	-0.00507149	0.00117648	6.21965E-05	0	5	0	
0.034	0.0152752	0.00202771	0.000913959	8.98913E-05	0	5	0	
0.0341667	-0.0152968	-0.000660755	0.000615121	9.3973E-05	0	5	0	
0.0343333	0.0272675	0.00267513	0.000442289	9.04311E-05	0	5	0	
0.0345	-0.0369056	-0.00576877	0.000449849	8.02676E-05	0	5	0	
0.0346667	0.029526	0.0111248	0.000563026	0.000105395	0	5	0	
0.0348333	-0.0161958	-0.014292	0.000644616	0.000162495	0	5	0	
0.035	0.01466	0.0072718	0.000603379	0.000226687	0	5	0	
0.0351667	-0.0191411	-0.00282593	0.000503536	0.000238634	0	5	0	
0.0353333	0.0213542	0.00382643	0.000418153	0.000186445	0	5	0	
0.0355	-0.0242765	-0.00515447	0.000404884	0.000120952	0	5	0	
0.0356667	0.0295043	0.00316035	0.000448958	9.42935E-05	0	5	0	
0.0358333	-0.0299241	0.00113748	0.000512775	9.77387E-05	0	5	0	
0.036	0.0244818	-0.000527771	0.000561958	7.34098E-05	0	5	0	
0.0361667	-0.0198168	-0.00350485	0.000553777	5.44383E-05	0	5	0	
0.0363333	0.0153746	0.00585292	0.000499869	5.41709E-05	0	5	0	
0.0365	-0.00958317	-0.00937848	0.000439401	9.33283E-05	0	5	0	
0.0366667	0.0149842	0.00728926	0.000370274	0.000137138	0	5	0	
0.0368333	-0.0334753	0.00021205	0.000385484	0.000185468	0	5	0	
0.037	0.0365317	-0.00135594	0.000470995	0.000188605	0	5	0	
0.0371667	-0.0164245	-0.00541045	0.000575591	0.000153862	0	5	0	
0.0373333	0.0235154	0.0104122	0.000630909	0.000119395	0	5	0	
0.0375	-0.0258149	-0.0030433	0.000590552	0.000171165	0	5	0	
0.0376667	0.024495	-0.0141355	0.000548843	0.000243677	0	5	0	
0.0378333	-0.0207775	0.0071093	0.00048006	0.000256879	0	5	0	
0.038	0.0224024	0.00584716	0.000460275	0.000231616	0	5	0	
0.0381667	-0.0244652	-0.00398462	0.000452143	0.000159904	0	5	0	
0.0383333	0.0385745	-0.00403302	0.000524593	0.000180268	0	5	0	
0.0385	-0.0275234	0.00381533	0.000581395	0.000149583	0	5	0	
0.0386667	0.0281448	-0.000642626	0.000600792	0.000147577	0	5	0	
0.0388333	-0.0308281	-0.00149433	0.000588216	0.000146353	0	5	0	
0.039	0.0200008	-0.00196969	0.00062724	0.000209376	0	5	0	
0.0391667	0.00635004	-0.00604545	0.000655466	0.000231508	0	5	0	
0.0393333	-0.00774087	0.0128745	0.000492954	0.000214301	0	5	0	
0.0395	-0.0261506	-0.00868709	0.00054865	0.00020293	0	5	0	
0.0396667	0.0684535	-0.00117515	0.000720188	0.000289165	0	5	0	
0.0398333	-0.073891	0.00668969	0.00110258	0.000281709	0	5	0	
0.04	0.0508548	0.0102817	0.00128508	0.000288319	0	5	0	
0.0401667	-0.0126728	-0.0303343	0.00148101	0.000310151	0	5	0	
0.0403333	-0.0190443	0.025873	0.00154243	0.000436162	0	5	0	
0.0405	0.0207553	-0.00993964	0.00121554	0.00045543	0	5	0	
0.0406667	0.0246342	-0.00129388	0.000905509	0.000362358	0	5	0	
0.0408333	-0.069138	0.00505012	0.000804978	0.000200628	0	5	0	
0.041	0.0783057	0.00177739	0.00106736	0.000137164	0	5	0	
0.0411667	-0.0521512	-0.0136217	0.00129184	0.000163573	0	5	0	
0.0413333	0.0211855	0.0167253	0.00127899	0.000244041	0	5	0	
0.0415	-0.00932431	0.0024128	0.00100623	0.000307824	0	5	0	
0.0416667	0.0202213	-0.0295957	0.000635872	0.000384696	0	5	0	
0.0418333	-0.0264969	0.0220094	0.000419193	0.000447193	0	5	0	
0.042	0.0242299	0.0083881	0.000422699	0.000535697	0	5	0	
0.0421667	-0.0301521	-0.0264811	0.000480437	0.000555354	0	5	0	
0.0423333	0.0380508	0.0272978	0.000531653	0.000568751	0	5	0	
0.0425	-0.0287801	-0.0273468	0.000622542	0.000521184	0	5	0	
0.0426667	0.0212333	0.027905	0.000676799	0.000520816	0	5	0	
0.0428333	-0.0300788	-0.0110034	0.000651768	0.000631595	0	5	0	
0.043	0.0322532	-0.0248337	0.00062886	0.000833191	0	5	0	
0.0431667	-0.0112518	0.0342502	0.00067798	0.000846612	0	5	0	
0.0433333	-0.0031675	-0.00420503	0.000698005	0.000742521	0	5	0	
0.0435	-0.00769271	-0.0183178	0.000511139	0.000518527	0	5	0	
0.0436667	0.0291551	0.00542573	0.000372264	0.000438211	0	5	0	
0.0438333	-0.0369133	0.00648812	0.000369513	0.000366793	0	5	0	
0.044	0.0247133	0.0186119	0.000568531	0.000324505	0	5	0	
0.0441667	-0.00895072	-0.0354745	0.000630189	0.00035466	0	5	0	
0.0443333	0.0126912	0.0197977	0.000527538	0.000478692	0	5	0	
0.0445	-0.0229158	0.00201671	0.000407443	0.000623124	0	5	0	
0.0446667	0.0220246	-0.000862748	0.000381451	0.000566743	0	5	0	
0.0448333	-0.0166747	-0.0106079	0.000457136	0.000370936	0	5	0	
0.045	0.0206961	0.0128886	0.000480712	0.000217526	0	5	0	
0.0451667	-0.0250606	6.73809E-06	0.000475999	0.000239655	0	5	0	
0.0453333	0.0199697	-0.0115294	0.000498668	0.000287815	0	5	0	
0.0455	-0.012062	0.00112619	0.000543808	0.000265702	0	5	0	
0.0456667	0.0124995	0.018563	0.0005303	0.000283847	0	5	0	
0.0458333	-0.015087	-0.0211239	0.000467053	0.000310417	0	5	0	
0.046	0.0164448	0.00118079	0.00040955	0.000427123	0	5	0	
0.0461667	-0.019285	0.010668	0.000406379	0.000396862	0	5	0	
0.0463333	0.0216109	0.00135023	0.000460886	0.000361871	0	5	0	
0.0465	-0.0199819	-0.00889345	0.000535869	0.000266594	0	5	0	
0.0466667	0.0203633	0.000577747	0.000592703	0.00018888	0	5	0	
0.0468333	-0.0195177	0.00287544	0.00060186	0.000125551	0	5	0	
0.047	0.0143971	0.00834068	0.000589964	0.000121689	0	5	0	
0.0471667	-0.0102437	-0.0158113	0.000566849	0.000190651	0	5	0	
0.0473333	0.0145842	0.0141046	0.000514389	0.000265898	0	5	0	
0.0475	-0.022562	0.00284963	0.000463626	0.000286455	0	5	0	
0.0476667	0.0264992	-0.0146099	0.000455775	0.000313026	0	5	0	
0.0478333	-0.0235111	0.0106548	0.000510302	0.000303742	0	5	0	
0.048	0.0205379	0.00723158	0.000566255	0.000308061	0	5	0	
0.0481667	-0.0250693	-0.0140939	0.000577225	0.000251103	0	5	0	
0.0483333	0.0290051	-0.00586173	0.000589666	0.000301023	0	5	0	
0.0485	-0.016877	0.0217778	0.000655817	0.000287685	0	5	0	
0.0486667	0.00206778	0.000659383	0.000705375	0.000377707	0	5	0	
0.0488333	-0.0122666	-0.0258322	0.000596681	0.000417417	0	5	0	
0.049	0.026901	0.0121619	0.000468073	0.000448288	0	5	0	
0.0491667	-0.021543	0.0143782	0.000418244	0.000471294	0	5	0	
0.0493333	0.0146748	-0.00923768	0.000483625	0.000370392	0	5	0	
0.0495	-0.0218841	-0.0186583	0.000480334	0.000363222	0	5	0	
0.0496667	0.0280253	0.00912319	0.000459749	0.000307308	0	5	0	
0.0498333	-0.0224168	0.0327911	0.000513799	0.000554641	0	5	0	
0.05	0.0127497	-0.0444335	0.000595096	0.000664291	0	5	0	
0.0501667	-0.0136824	0.00635005	0.000589448	0.000815154	0	5	0	
0.0503333	0.0155296	0.0149895	0.000523396	0.000725498	0	5	0	
0.0505	-0.00964204	-0.00217422	0.000494052	0.000545094	0	5	0	
0.0506667	0.00712453	-0.0048174	0.000490221	0.000295628	0	5	0	
0.0508333	-0.0158762	-0.0172683	0.000441786	0.000226997	0	5	0	
0.051	0.023794	0.0207376	0.000397579	0.000277563	0	5	0	
0.0511667	-0.0233189	0.00947981	0.000432233	0.000494649	0	5	0	
0.0513333	0.0192725	-0.0310794	0.000527518	0.000544764	0	5	0	
0.0515	-0.0188632	0.0215781	0.000592863	0.00060184	0	5	0	
0.0516667	0.0163633	-0.00347904	0.000595694	0.00047685	0	5	0	
0.0518333	-0.0144409	0.00147437	0.000554876	0.000302912	0	5	0	
0.052	0.0157653	-0.00665576	0.000492698	0.000201839	0	5	0	
0.0521667	-0.0189293	0.0113211	0.000459265	0.000131438	0	5	0	
0.0523333	0.0192511	-0.00418825	0.00047624	0.000160133	0	5	0	
0.0525	-0.0164624	-0.0032098	0.000528398	0.000147379	0	5	0	
0.0526667	0.0109036	0.00309	0.000554486	0.00013395	0	5	0	
0.0528333	-0.0106005	0.00156416	0.000515378	0.000122192	0	5	0	
0.053	0.0171111	0.00105722	0.000440814	9.97991E-05	0	5	0	
0.0531667	-0.0207319	-0.00249731	0.000405514	8.64304E-05	0	5	0	
0.0533333	0.0185931	0.00544576	0.000440858	5.88842E-05	0	5	0	
0.0535	-0.0149988	-0.0081489	0.000503545	8.45494E-05	0	5	0	
0.0536667	0.0125214	0.00938081	0.000525948	0.000126016	0	5	0	
0.0538333	-0.0139167	-0.00885302	0.000507535	0.000163308	0	5	0	
0.054	0.0168462	0.00618611	0.000473438	0.000167729	0	5	0	
0.0541667	-0.017833	-0.00219254	0.000457242	0.000141638	0	5	0	
0.0543333	0.015998	0.00331262	0.0004722	0.000109564	0	5	0	
0.0545	-0.0143796	-0.00291266	0.000507708	8.64481E-05	0	5	0	
0.0546667	0.0131322	0.00178225	0.000534307	6.74655E-05	0	5	0	
0.0548333	-0.0140123	0.00152344	0.000541999	5.29793E-05	0	5	0	
0.055	0.0115187	-0.000841282	0.000524118	4.93325E-05	0	5	0	
0.0551667	-0.0111783	-0.00167015	0.000492544	4.59526E-05	0	5	0	
0.0553333	0.013584	0.000576588	0.000457769	4.13057E-05	0	5	0	
0.0555	-0.0176619	0.00156498	0.000448154	3.82734E-05	0	5	0	
0.0556667	0.01979	-0.0011355	0.000473401	4.84361E-05	0	5	0	
0.0558333	-0.0203968	0.00237938	0.000511983	6.34189E-05	0	5	0	
0.056	0.0184968	-0.00242584	0.00054156	8.75923E-05	0	5	0	
0.0561667	-0.0161709	0.00186926	0.000545136	0.000119566	0	5	0	
0.0563333	0.0171486	-0.0025184	0.000530554	0.000145824	0	5	0	
0.0565	-0.0185661	-0.000365581	0.000511198	0.000144426	0	5	0	
0.0566667	0.0157431	0.00512522	0.000508473	0.000136944	0	5	0	
0.0568333	-0.0120505	-0.00459295	0.000507935	0.000148189	0	5	0	
0.057	0.0153682	0.00205169	0.000494855	0.000195118	0	5	0	
0.0571667	-0.0163333	0.00189118	0.000488028	0.00023647	0	5	0	
0.0573333	0.00541923	0.00234329	0.000503072	0.000196373	0	5	0	
0.0575	-0.00104077	-0.0173376	0.000470572	0.000176532	0	5	0	
0.0576667	0.0233125	0.0208447	0.000387334	0.000204944	0	5	0	
0.0578333	-0.0454727	0.00859095	0.000414994	0.000445816	0	5	0	
0.058	0.0322656	-0.0411322	0.000629878	0.00068743	0	5	0	
0.0581667	-0.000113314	0.0379786	0.000915888	0.000790265	0	5	0	
0.0583333	-0.00765204	-0.00289405	0.000899283	0.00078985	0	5	0	
0.0585	-0.00780079	-0.0199498	0.00062515	0.000658104	0	5	0	
0.0586667	0.0128719	0.00567005	0.000357135	0.000522053	0	5	0	
0.0588333	-0.0142309	-0.00414809	0.000271228	0.000337989	0	5	0	
0.059	0.0297267	0.0348601	0.000350505	0.000273612	0	5	0	
0.0591667	-0.0405709	-0.036375	0.000463453	0.000498371	0	5	0	
0.0593333	0.0272857	-0.0369231	0.000677277	0.00114057	0	5	0	
0.0595	-0.00318057	0.082308	0.000871655	0.00171027	0	5	0	
0.0596667	0.00178841	-0.0450075	0.000806438	0.00176719	0	5	0	
0.0598333	-0.0276441	-0.00596209	0.000582588	0.00119657	0	5	0	
0.06	0.0416839	-0.0256872	0.000477899	0.000896938	0	5	0	
0.0601667	-0.0207365	0.0662929	0.000628832	0.000949181	0	5	0	
0.0603333	0.00276924	-0.0188879	0.000779564	0.00110096	0	5	0	
0.0605	-0.0075484	-0.0681297	0.000639484	0.00115408	0	5	0	
0.0606667	0.0164012	0.0723875	0.000435126	0.00117114	0	5	0	
0.0608333	-0.0108155	-0.0150456	0.000330194	0.00146679	0	5	0	
0.061	0.0101877	-0.00839416	0.00034245	0.00143281	0	5	0	
0.0611667	-0.0204279	-0.0146412	0.000340148	0.00110283	0	5	0	
0.0613333	0.0259384	0.0197793	0.00035763	0.000693417	0	5	0	
0.0615	-0.0153543	0.0144508	0.000489179	0.000680561	0	5	0	
0.0616667	0.00749477	-0.0369512	0.000594327	0.000848039	0	5	0	
0.0618333	-0.0129173	0.0121721	0.00056245	0.000807532	0	5	0	
0.062	0.0177798	0.0176816	0.000475213	0.000595642	0	5	0	
0.0621667	-0.0127054	-0.0103512	0.000472393	0.000426816	0	5	0	
0.0623333	0.00692619	-0.0129313	0.000520273	0.00049973	0	5	0	
0.0625	-0.0100111	0.0134981	0.000485514	0.000420262	0	5	0	
0.0626667	0.0159093	0.00680156	0.000401822	0.000427151	0	5	0	
0.0628333	-0.0174331	-0.0170745	0.000378779	0.000270847	0	5	0	
0.063	0.017188	-0.00519516	0.000442818	0.000363852	0	5	0	
0.0631667	-0.0158016	0.0263119	0.000525514	0.0004275	0	5	0	
0.0633333	0.0104202	-0.00326533	0.000589351	0.000485204	0	5	0	
0.0635	-0.00606511	-0.0338129	0.000606551	0.000527077	0	5	0	
0.0636667	0.0138116	0.0264186	0.000552807	0.0005323	0	5	0	
0.0638333	-0.0217434	0.0179795	0.000506748	0.000838918	0	5	0	
0.064	0.0109256	-0.0401863	0.000535512	0.000944883	0	5	0	
0.0641667	0.00152754	0.0193469	0.000604973	0.000936192	0	5	0	
0.0643333	0.0089254	0.0121686	0.00051578	0.000605601	0	5	0	
0.0645	-0.0232354	-0.0172967	0.000401174	0.000378254	0	5	0	
0.0646667	0.0208443	0.00993055	0.000351546	0.000362057	0	5	0	
0.0648333	-0.0141712	-0.0181667	0.000449889	0.000404719	0	5	0	
0.065	0.0173577	0.0296815	0.00049052	0.000477591	0	5	0	
0.0651667	-0.0183922	-0.0246445	0.000504793	0.000589416	0	5	0	
0.0653333	0.00600913	-0.00121439	0.00057069	0.00076477	0	5	0	
0.0655	0.00784758	0.0111802	0.000649088	0.000741154	0	5	0	
0.0656667	-0.0024845	0.00829984	0.00057721	0.000575532	0	5	0	
0.0658333	-0.0121804	-0.0297865	0.00039033	0.000393971	0	5	0	
0.066	0.0173502	0.018056	0.00030354	0.000399582	0	5	0	
0.0661667	-0.00973812	-0.00266462	0.000409184	0.000480517	0	5	0	
0.0663333	0.00232505	0.00439792	0.00055499	0.000390595	0	5	0	
0.0665	-0.00496878	-0.0171503	0.000564386	0.000294342	0	5	0	
0.0666667	0.0092352	0.0117779	0.00049255	0.00022485	0	5	0	
0.0668333	-0.00776011	0.00303649	0.000445679	0.000355494	0	5	0	
0.067	0.00720564	-0.00859815	0.000456481	0.000370075	0	5	0	
0.0671667	-0.0117663	-0.00527241	0.000468516	0.000305698	0	5	0	
0.0673333	0.0135532	0.0148971	0.000468489	0.000188922	0	5	0	
0.0675	-0.0115998	-0.00930043	0.000489931	0.000218802	0	5	0	
0.0676667	0.00704445	-0.00201558	0.000524959	0.000313461	0	5	0	
0.0678333	-0.00554923	0.00170125	0.000532413	0.000333476	0	5	0	
0.068	0.00759385	0.00732884	0.00049387	0.000250348	0	5	0	
0.0681667	-0.0100897	-0.0122021	0.000446084	0.000182847	0	5	0	
0.0683333	0.00963927	0.00672203	0.000425158	0.000214134	0	5	0	
0.0685	-0.00732179	-0.00218289	0.000431993	0.000286549	0	5	0	
0.0686667	0.00825396	0.00195246	0.000442327	0.000271702	0	5	0	
0.0688333	-0.0108279	-0.00407922	0.000449947	0.000203238	0	5	0	
0.069	0.0100765	0.00260888	0.000477214	0.00013833	0	5	0	
0.0691667	-0.00670749	-0.0025192	0.00052841	0.000105569	0	5	0	
0.0693333	0.000646773	0.00835443	0.000562827	0.000108031	0	5	0	
0.0695	0.00397931	0.000110831	0.000549771	0.000182813	0	5	0	
0.0696667	-0.00256621	-0.0280009	0.000487921	0.000358831	0	5	0	
0.0698333	-0.00765842	0.0457351	0.000405318	0.000530162	0	5	0	
0.07	0.0182578	-0.0234713	0.000367564	0.000695725	0	5	0	
0.0701667	-0.0248832	0.0109753	0.000407999	0.000746097	0	5	0	
0.0703333	0.027618	-0.0200027	0.000512059	0.000685244	0	5	0	
0.0705	-0.0342079	0.0151177	0.000659879	0.000576921	0	5	0	
0.0706667	0.0305756	0.00719776	0.00083339	0.000507116	0	5	0	
0.0708333	-0.0153296	-0.00119082	0.00103052	0.000410272	0	5	0	
0.071	-0.00363093	-0.0260076	0.00112338	0.000565171	0	5	0	
0.0711667	0.00956451	0.0514363	0.00100526	0.000714503	0	5	0	
0.0713333	-0.00361697	-0.041333	0.000709087	0.000965322	0	5	0	
0.0715	-0.00577608	0.0219572	0.000384288	0.00085994	0	5	0	
0.0716667	0.014222	-0.0186779	0.000217612	0.000706188	0	5	0	
0.0718333	-0.0245979	0.0238277	0.000226116	0.000592875	0	5	0	
0.072	0.0292309	-0.01782	0.000363052	0.000513134	0	5	0	
0.0721667	-0.0250139	0.00359848	0.000524255	0.00040062	0	5	0	
0.0723333	0.0158852	0.00511062	0.000656981	0.00024755	0	5	0	
0.0725	-0.00561722	7.61466E-05	0.000734134	0.000225754	0	5	0	
0.0726667	2.72087E-05	-0.0056885	0.000757923	0.00026624	0	5	0	
0.0728333	0.00171723	0.00144815	0.000719506	0.000254142	0	5	0	
0.073	-0.00151158	0.0107297	0.000636928	0.000166839	0	5	0	
0.0731667	0.00266581	-0.0188885	0.00054676	0.000154381	0	5	0	
0.0733333	0.000100409	0.0114743	0.000454902	0.000253726	0	5	0	
0.0735	-0.0126667	0.00481692	0.00037652	0.000365252	0	5	0	
0.0736667	0.0185463	-0.0142509	0.000394581	0.000368115	0	5	0	
0.0738333	-0.00310508	0.00768084	0.000560075	0.00030744	0	5	0	
0.074	-0.00959927	0.0160434	0.000717131	0.000295061	0	5	0	
0.0741667	-0.00304776	-0.0307193	0.000612725	0.000346437	0	5	0	
0.0743333	0.0202836	0.0187321	0.000410092	0.000450139	0	5	0	
0.0745	-0.0151134	0.00012451	0.00036588	0.000499562	0	5	0	
0.0746667	0.000861939	-0.00282928	0.000563157	0.000491116	0	5	0	
0.0748333	0.00146094	0.00355233	0.000680108	0.000427004	0	5	0	
0.075	-0.000238369	-0.00846163	0.000635202	0.000343284	0	5	0	
0.0751667	0.00621293	0.00907662	0.000544944	0.000240513	0	5	0	
0.0753333	-0.00779646	0.00911203	0.000496919	0.000294608	0	5	0	
0.0755	-0.000936466	-0.0257753	0.000425658	0.000346481	0	5	0	
0.0756667	0.0118604	0.017787	0.000333794	0.000447063	0	5	0	
0.0758333	-0.0137694	0.00157363	0.000333275	0.000446372	0	5	0	
0.076	0.00473138	-0.00266001	0.000460984	0.0003495	0	5	0	
0.0761667	0.00164426	-0.00719326	0.000577185	0.000255339	0	5	0	
0.0763333	0.00530336	0.0109348	0.0005396	0.000144243	0	5	0	
0.0765	-0.0139814	-0.00472108	0.000456453	0.000186017	0	5	0	
0.0766667	0.0058631	-0.00740275	0.000469751	0.000230596	0	5	0	
0.0768333	0.00358189	0.0039269	0.00058507	0.000239442	0	5	0	
0.077	-4.1485E-05	0.000993688	0.000583207	0.000163114	0	5	0	
0.0771667	-0.0096435	0.00320989	0.000473009	0.000109745	0	5	0	
0.0773333	0.00966653	-0.00924896	0.000415132	0.000106035	0	5	0	
0.0775	-0.00217727	0.00753222	0.000504342	0.000137013	0	5	0	
0.0776667	-0.00396361	-0.00116853	0.00060932	0.000144201	0	5	0	
0.0778333	0.000729141	-0.00472948	0.000591416	0.000113477	0	5	0	
0.078	0.00242059	0.00218189	0.000481237	0.000114836	0	5	0	
0.0781667	-0.00315162	-0.00152313	0.000392952	0.000130456	0	5	0	
0.0783333	0.00396007	0.00175082	0.000375532	0.000184883	0	5	0	
0.0785	-0.00476316	0.00363428	0.000404768	0.000220917	0	5	0	
0.0786667	0.0040343	-0.00198051	0.000458377	0.000221199	0	5	0	
0.0788333	9.85604E-05	-0.000713537	0.000522924	0.000161126	0	5	0	
0.079	-0.00157264	0.00529175	0.000551214	9.87056E-05	0	5	0	
0.0791667	-0.00351114	-0.00514275	0.00050579	9.55156E-05	0	5	0	
0.0793333	0.00787621	-0.00360814	0.000445426	0.000179838	0	5	0	
0.0795	-0.0102464	0.0185225	0.000457979	0.000263097	0	5	0	
0.0796667	0.00804495	-0.0161166	0.000565048	0.00030643	0	5	0	
0.0798333	0.00311793	0.00810345	0.000725714	0.000324005	0	5	0	
0.08	-0.0153975	0.0118087	0.000837456	0.000379875	0	5	0	
0.0801667	0.0117896	-0.0271837	0.000773779	0.000434926	0	5	0	
0.0803333	0.00474753	0.0305617	0.000539897	0.000481978	0	5	0	
0.0805	-0.00952838	-0.0169515	0.000369584	0.000524558	0	5	0	
0.0806667	0.00289932	-0.00110253	0.000391397	0.000618853	0	5	0	
0.0808333	-0.00668926	0.0152384	0.000488869	0.000618036	0	5	0	
0.081	0.0110546	-0.0102729	0.000543719	0.000492897	0	5	0	
0.0811667	0.001198	0.000509109	0.000604673	0.000307992	0	5	0	
0.0813333	-0.0101763	0.00328841	0.000677455	0.000211524	0	5	0	
0.0815	2.68292E-05	-0.00803383	0.000623438	0.000203979	0	5	0	
0.0816667	0.0100495	0.00974993	0.00047873	0.00020665	0	5	0	
0.0818333	-0.00687909	-0.00452784	0.000427024	0.000175592	0	5	0	
0.082	0.000363748	-0.000560387	0.000508094	0.000143866	0	5	0	
0.0821667	0.00286631	-0.00263109	0.000573844	0.000102878	0	5	0	
0.0823333	-0.00433134	0.00595023	0.000552407	0.000100507	0	5	0	
0.0825	0.00396973	-0.00964347	0.000507138	0.000125235	0	5	0	
0.0826667	-0.00463755	0.00748252	0.000479481	0.000159525	0	5	0	
0.0828333	0.0033316	-0.0064781	0.000449655	0.000211831	0	5	0	
0.083	-9.83752E-05	-0.00128531	0.000405982	0.000248028	0	5	0	
0.0831667	-0.00208911	-0.000363344	0.000386333	0.000247566	0	5	0	
0.0833333	0.000263703	0.00302576	0.000423912	0.000179855	0	5	0	
0.0835	0.00287338	-0.00317648	0.000507681	0.000103593	0	5	0	
0.0836667	-0.00489622	-0.00358206	0.000574717	7.62012E-05	0	5	0	
0.0838333	0.00507461	0.00248372	0.000566969	8.87032E-05	0	5	0	
0.084	-0.00279291	0.000555309	0.000483639	6.84984E-05	0	5	0	
0.0841667	-0.000156433	-0.00711011	0.000389563	7.56329E-05	0	5	0	
0.0843333	0.00227707	0.000277049	0.00035855	0.00013703	0	5	0	
0.0845	-0.000842809	0.00653567	0.000398148	0.000255397	0	5	0	
0.0846667	-0.000489828	-0.00430247	0.00045787	0.000295556	0	5	0	
0.0848333	0.00310973	-0.00574564	0.000491029	0.000235882	0	5	0	
0.085	-0.0049015	0.0073872	0.000496781	0.000185736	0	5	0	
0.0851667	0.00222444	0.00101349	0.000476966	0.0002216	0	5	0	
0.0853333	0.00349367	-0.00621458	0.000438622	0.000270171	0	5	0	
0.0855	-0.00481104	0.00154357	0.000431902	0.000222236	0	5	0	
0.0856667	0.00057598	0.00241673	0.00050268	0.000113771	0	5	0	
0.0858333	0.00626989	8.35171E-06	0.000613109	7.06781E-05	0	5	0	
0.086	-0.00844318	-0.00569252	0.00065665	0.000102001	0	5	0	
0.0861667	0.005829	0.00633954	0.000592541	0.000141975	0	5	0	
0.0863333	-0.00384917	-0.000169257	0.000482517	0.000134707	0	5	0	
0.0865	0.00160331	-0.00180091	0.000405599	0.000121841	0	5	0	
0.0866667	0.00306514	-0.00327449	0.000368021	0.000171666	0	5	0	
0.0868333	-0.00803904	0.00663169	0.000365369	0.000253874	0	5	0	
0.087	0.00591044	-0.00363477	0.000409047	0.000290719	0	5	0	
0.0871667	0.00126834	-0.000197245	0.000509587	0.000227717	0	5	0	
0.0873333	-0.00597839	0.00479936	0.000592404	0.000162609	0	5	0	
0.0875	0.00557295	-0.000872878	0.000591678	0.000156302	0	5	0	
0.0876667	-0.00305278	-0.0056187	0.00053097	0.000184042	0	5	0	
0.0878333	0.00363595	-0.00126769	0.000487752	0.000173516	0	5	0	
0.088	-0.00314982	0.00508962	0.00047591	0.000136644	0	5	0	
0.0881667	-0.000743701	0.00018961	0.000463686	0.000127655	0	5	0	
0.0883333	0.00035966	-0.00134493	0.000477111	0.000132405	0	5	0	
0.0885	0.00597538	4.88242E-05	0.000545408	9.76735E-05	0	5	0	
0.0886667	-0.0088171	0.00267146	0.000609077	5.26996E-05	0	5	0	
0.0888333	0.00680948	-0.00269609	0.000591619	6.50158E-05	0	5	0	
0.089	-0.00630586	-0.00275794	0.000517827	0.000126885	0	5	0	
0.0891667	0.00530565	0.00103648	0.000458283	0.000136686	0	5	0	
0.0893333	-0.00214783	0.00592161	0.000424552	9.64888E-05	0	5	0	
0.0895	-0.00306038	-0.00143792	0.000411882	7.65363E-05	0	5	0	
0.0896667	0.00357478	-0.00791084	0.000440669	0.000161374	0	5	0	
0.0898333	0.00304872	0.00808253	0.000523106	0.000204491	0	5	0	
0.09	-0.0121282	0.0105888	0.000609544	0.00023624	0	5	0	
0.0901667	0.0124215	-0.0185314	0.000615293	0.000226062	0	5	0	
0.0903333	-0.00143714	-0.00188438	0.000511131	0.000302644	0	5	0	
0.0905	-0.00948928	0.0264358	0.000433766	0.000398653	0	5	0	
0.0906667	-0.000738531	-0.0277524	0.000540142	0.000480478	0	5	0	
0.0908333	0.0189674	0.015285	0.000739407	0.000481298	0	5	0	
0.091	-0.0203488	-0.00442232	0.000788753	0.000419037	0	5	0	
0.0911667	0.00910139	0.00173689	0.000638872	0.000355195	0	5	0	
0.0913333	-0.00577665	0.00425819	0.000481523	0.000309564	0	5	0	
0.0915	0.00123767	-0.0130407	0.000443202	0.000252904	0	5	0	
0.0916667	0.00587704	0.0127268	0.000435011	0.000243804	0	5	0	
0.0918333	-0.00401327	0.00115809	0.000456025	0.00035495	0	5	0	
0.092	-0.00928424	-0.0190536	0.00054388	0.000484308	0	5	0	
0.0921667	0.0159195	0.0120944	0.00066738	0.000473867	0	5	0	
0.0923333	-0.014892	0.0026109	0.000687408	0.000313657	0	5	0	
0.0925	0.0075605	0.00393549	0.000578188	0.000194192	0	5	0	
0.0926667	-0.0073815	-0.0148491	0.000473987	0.000194019	0	5	0	
0.0928333	0.00877077	0.0108492	0.000456561	0.000225062	0	5	0	
0.093	0.00754187	-0.00775439	0.000396957	0.000252137	0	5	0	
0.0931667	-0.0341044	0.00853717	0.000406404	0.000223109	0	5	0	
0.0933333	0.0381203	-0.0241858	0.00045655	0.000249396	0	5	0	
0.0935	-0.022009	0.025265	0.000608571	0.000322545	0	5	0	
0.0936667	0.00402398	-0.00211367	0.00072935	0.00044798	0	5	0	
0.0938333	0.00988944	-0.0145453	0.00082428	0.000478003	0	5	0	
0.094	-0.023673	0.00605531	0.000909243	0.000415429	0	5	0	
0.0941667	0.0307516	0.000764871	0.000813856	0.000401631	0	5	0	
0.0943333	-0.0163204	0.0062194	0.000656205	0.000422546	0	5	0	
0.0945	-0.0025679	0.00610972	0.00042919	0.000646199	0	5	0	
0.0946667	0.00173579	-0.0318876	0.000335924	0.000944358	0	5	0	
0.0948333	0.00392831	0.0309622	0.000354691	0.001108	0	5	0	
0.095	0.00408612	-0.00157414	0.000408527	0.000911472	0	5	0	
0.0951667	-0.00857499	0.000994474	0.000440641	0.000590425	0	5	0	
0.0953333	0.00708063	-0.0133763	0.00041158	0.000449127	0	5	0	
0.0955	-0.00420481	-0.00668264	0.000428129	0.000391214	0	5	0	
0.0956667	0.00344046	0.0396255	0.000474048	0.000433938	0	5	0	
0.0958333	0.00388559	-0.0329974	0.000560693	0.000472319	0	5	0	
0.096	-0.0140943	0.0182665	0.000685317	0.00059156	0	5	0	
0.0961667	0.0199417	-0.0253588	0.000751941	0.000558157	0	5	0	
0.0963333	-0.0147698	0.0189624	0.000682457	0.000489021	0	5	0	
0.0965	0.00486696	0.00217576	0.000534284	0.000509664	0	5	0	
0.0966667	-0.00303635	-0.0221697	0.000476593	0.000537476	0	5	0	
0.0968333	0.00889209	0.0127812	0.000521361	0.000504322	0	5	0	
0.097	-0.00543927	0.0073736	0.000543011	0.000349317	0	5	0	
0.0971667	-0.00166637	-0.000266925	0.000482388	0.000282917	0	5	0	
0.0973333	-0.00467103	-0.0235427	0.000472401	0.000342687	0	5	0	
0.0975	0.015013	0.012513	0.000586333	0.000394189	0	5	0	
0.0976667	-0.0163009	0.00929396	0.000700604	0.000392463	0	5	0	
0.0978333	0.0131252	-0.0151546	0.000684642	0.000296366	0	5	0	
0.098	-0.0125482	0.0127616	0.000599406	0.000290001	0	5	0	
0.0981667	0.0149168	-0.0136785	0.000533445	0.000291419	0	5	0	
0.0983333	-0.00849993	0.0122938	0.000473769	0.000397977	0	5	0	
0.0985	-0.000697919	0.00334637	0.000392713	0.000543345	0	5	0	
0.0986667	-0.000532944	-0.0224232	0.000395952	0.000673191	0	5	0	
0.0988333	0.0129504	0.0256193	0.000520747	0.000669758	0	5	0	
0.099	-0.0235683	-0.0104931	0.000659067	0.000543705	0	5	0	
0.0991667	0.0190076	-0.019246	0.000656037	0.000457976	0	5	0	
0.0993333	-0.00452082	0.0287164	0.000502851	0.000423828	0	5	0	
0.0995	0.000220547	-0.0135788	0.000370426	0.000458788	0	5	0	
0.0996667	-0.00888737	0.00545284	0.000406489	0.00041575	0	5	0	
0.0998333	0.0154106	-0.00838797	0.000519471	0.000345965	0	5	0	
0.1	-0.0131189	0.00682496	0.000576195	0.000261779	0	5	0	
0.100167	0.00746079	-0.000512157	0.000508818	0.000258147	0	5	0	
0.100333	-0.00597468	-0.00606632	0.000434657	0.000284566	0	5	0	
0.1005	0.00582478	0.00414006	0.000411443	0.0002534	0	5	0	
0.100667	-0.00565423	0.00549127	0.000430763	0.000160994	0	5	0	
0.100833	0.00928902	-0.00106861	0.000485434	0.000115303	0	5	0	
0.101	-0.013586	-0.00428308	0.000550372	0.000161402	0	5	0	
0.101167	0.0127488	0.00483284	0.00057278	0.000183608	0	5	0	
0.101333	-0.010579	0.00339478	0.000527356	0.000147642	0	5	0	
0.1015	0.00949935	-0.00200125	0.000465858	9.2984E-05	0	5	0	
0.101667	-0.00898455	-0.00403757	0.000437233	0.000149519	0	5	0	
0.101833	0.00620436	0.0142093	0.000449828	0.000210153	0	5	0	
0.102	-0.00617588	-0.00745941	0.000487333	0.000258354	0	5	0	
0.102167	0.00980519	-0.0050975	0.000529322	0.00025255	0	5	0	
0.102333	-0.011177	0.00968976	0.000544639	0.000212777	0	5	0	
0.1025	0.0103372	0.000823722	0.000527011	0.000203044	0	5	0	
0.102667	-0.0111031	-0.00121957	0.000502808	0.000151093	0	5	0	
0.102833	0.00984378	0.000837672	0.000488386	0.000121014	0	5	0	
0.103	-0.0060404	-0.00149452	0.000468718	8.21916E-05	0	5	0	
0.103167	0.00543552	0.00491515	0.000446517	9.23269E-05	0	5	0	
0.103333	-0.00696877	-0.00421758	0.000448536	0.000128698	0	5	0	
0.1035	0.0100181	0.00270899	0.000473932	0.000117203	0	5	0	
0.103667	-0.0110613	-0.000704461	0.000495755	7.30588E-05	0	5	0	
0.103833	0.00952936	0.00337061	0.000486995	5.0637E-05	0	5	0	
0.104	-0.00635422	-0.00657523	0.000457883	6.97365E-05	0	5	0	
0.104167	0.00592638	0.00405856	0.000432026	9.59396E-05	0	5	0	
0.104333	-0.00755634	-0.00116968	0.000446399	8.86017E-05	0	5	0	
0.1045	0.0123648	0.00142311	0.000510405	6.39921E-05	0	5	0	
0.104667	-0.0180618	-0.0049697	0.000580004	7.0601E-05	0	5	0	
0.104833	0.0169534	0.00897929	0.000584863	0.000135005	0	5	0	
0.105	-0.0113047	-0.0112891	0.000501272	0.000201777	0	5	0	
0.105167	0.00579958	0.00578763	0.000393332	0.000219964	0	5	0	
0.105333	-0.00484832	-0.000287349	0.000343143	0.000171398	0	5	0	
0.1055	0.00873285	0.00294932	0.000382123	0.000156685	0	5	0	
0.105667	-0.0112045	-0.0108347	0.000449066	0.000202829	0	5	0	
0.105833	0.0127817	0.0131081	0.000491538	0.000274097	0	5	0	
0.106	-0.0203688	-0.00605559	0.00052686	0.000259391	0	5	0	
0.106167	0.024225	-0.0111949	0.000549855	0.000209693	0	5	0	
0.106333	-0.00786092	0.0160263	0.000478824	0.000209968	0	5	0	
0.1065	-0.0166397	0.00721756	0.000325977	0.000446368	0	5	0	
0.106667	0.00997663	-0.0398916	0.000347099	0.000749372	0	5	0	
0.106833	0.0221287	0.0395919	0.000636487	0.000914327	0	5	0	
0.107	-0.0327487	-0.0111385	0.000881306	0.000798446	0	5	0	
0.107167	0.0201711	-0.00687793	0.000854032	0.000560856	0	5	0	
0.107333	-0.0208462	-0.00260343	0.000634834	0.000348449	0	5	0	
0.1075	0.0267419	0.000856963	0.000521687	0.000204917	0	5	0	
0.107667	-0.0114338	0.0377348	0.000452842	0.000235872	0	5	0	
0.107833	-0.0189052	-0.063322	0.00041157	0.000473901	0	5	0	
0.108	0.0243918	0.0168278	0.000382253	0.000992206	0	5	0	
0.108167	0.00345525	0.0408942	0.000565408	0.00148617	0	5	0	
0.108333	-0.030184	-0.0247985	0.000748766	0.00143823	0	5	0	
0.1085	0.0317684	-0.0402269	0.000832755	0.00102255	0	5	0	
0.108667	-0.0269361	0.0279281	0.000742054	0.000726919	0	5	0	
0.108833	0.0345969	0.0299016	0.000675376	0.00112459	0	5	0	
0.109	-0.0373096	-0.0387608	0.000669589	0.00127726	0	5	0	
0.109167	0.0157566	-0.0267411	0.000639584	0.00121929	0	5	0	
0.109333	0.00491262	0.0530982	0.000464473	0.00084992	0	5	0	
0.1095	0.0087402	-0.0278075	0.000460001	0.000871801	0	5	0	
0.109667	-0.0324064	-0.000820064	0.000634629	0.000737013	0	5	0	
0.109833	0.031498	-0.0330458	0.000848525	0.000664837	0	5	0	
0.11	-0.0152195	0.0612102	0.000795514	0.000684712	0	5	0	
0.110167	0.00508582	-0.0357687	0.000572543	0.000856434	0	5	0	
0.110333	-0.00950248	-0.0180813	0.000474666	0.00107226	0	5	0	
0.1105	0.015956	0.0241782	0.000507057	0.000903516	0	5	0	
0.110667	-0.0148261	0.00548722	0.000567082	0.000742897	0	5	0	
0.110833	0.0166747	-0.0176789	0.000570799	0.000389734	0	5	0	
0.111	-0.023721	-0.00731806	0.00057773	0.000453348	0	5	0	
0.111167	0.0227063	0.0257592	0.000587685	0.000495563	0	5	0	
0.111333	-0.0172661	-0.0104088	0.000553451	0.000532556	0	5	0	
0.1115	0.00909711	-0.0157021	0.000467255	0.000438682	0	5	0	
0.111667	-0.00872786	0.0107525	0.00039735	0.000323701	0	5	0	
0.111833	0.0110905	0.0159546	0.00039752	0.00047175	0	5	0	
0.112	-0.0117932	-0.0215246	0.000416594	0.000468988	0	5	0	
0.112167	0.0103411	-0.0139249	0.000413448	0.000552454	0	5	0	
0.112333	-0.00798086	0.0337646	0.00039076	0.000436135	0	5	0	
0.1125	0.00580936	0.00117455	0.000406329	0.000613846	0	5	0	
0.112667	-0.0158688	-0.0355695	0.000496758	0.000777919	0	5	0	
0.112833	0.0279844	0.0222789	0.000612401	0.00081867	0	5	0	
0.113	-0.0274396	0.00697623	0.000643183	0.000654318	0	5	0	
0.113167	0.0168285	-0.0155469	0.000569426	0.000373257	0	5	0	
0.113333	-0.0151527	0.0104353	0.000459083	0.000295235	0	5	0	
0.1135	0.0181431	-0.0116247	0.000440768	0.000233816	0	5	0	
0.113667	-0.0129696	0.02464	0.000432831	0.000286774	0	5	0	
0.113833	0.00589268	-0.0279153	0.000411064	0.000353355	0	5	0	
0.114	-0.0116995	0.00626744	0.000421201	0.000452524	0	5	0	
0.114167	0.0216185	0.0163092	0.00050993	0.000492426	0	5	0	
0.114333	-0.0212477	-0.0157393	0.000594035	0.000423727	0	5	0	
0.1145	0.0124906	0.00558959	0.0005641	0.000375778	0	5	0	
0.114667	-0.00845749	-0.00621011	0.000483032	0.000271443	0	5	0	
0.114833	0.0139924	0.0177255	0.0004756	0.000279112	0	5	0	
0.115	-0.0220643	-0.0150733	0.000537256	0.000249976	0	5	0	
0.115167	0.0217324	-0.00233781	0.000588316	0.000273913	0	5	0	
0.115333	-0.016831	0.00680813	0.000557047	0.000204997	0	5	0	
0.1155	0.0151981	0.0110479	0.000485861	0.000265648	0	5	0	
0.115667	-0.0150656	-0.0200157	0.000435375	0.000349053	0	5	0	
0.115833	0.0137594	0.00755374	0.000418008	0.000390059	0	5	0	
0.116	-0.013342	0.0116932	0.000417858	0.000312267	0	5	0	
0.116167	0.0125371	-0.0069412	0.000439289	0.000204903	0	5	0	
0.116333	-0.0167075	-0.00947662	0.000487081	0.000265629	0	5	0	
0.1165	0.020319	0.0192217	0.00054013	0.00029323	0	5	0	
0.116667	-0.0197682	-0.00791814	0.000555402	0.000321833	0	5	0	
0.116833	0.0168706	-0.00300414	0.000535555	0.000247628	0	5	0	
0.117	-0.0168827	1.56336E-05	0.000499574	0.00017052	0	5	0	
0.117167	0.0157892	0.0107853	0.000471658	0.000178135	0	5	0	
0.117333	-0.0144298	-0.0109153	0.000455971	0.000199057	0	5	0	
0.1175	0.0144413	0.00230314	0.000454512	0.000217427	0	5	0	
0.117667	-0.0157842	0.00140243	0.000445165	0.000171591	0	5	0	
0.117833	0.0151193	0.0100018	0.000429823	0.000198154	0	5	0	
0.118	-0.0174446	-0.01082	0.000415647	0.000215477	0	5	0	
0.118167	0.0183153	-0.0150999	0.000424191	0.000305516	0	5	0	
0.118333	-0.0198569	0.038212	0.000447181	0.000368947	0	5	0	
0.1185	0.0240954	-0.0317018	0.000484615	0.0005384	0	5	0	
0.118667	-0.0270587	0.0184025	0.000516914	0.000637401	0	5	0	
0.118833	0.0221073	-0.0176052	0.00052972	0.000601868	0	5	0	
0.119	-0.0181157	0.0179736	0.000509347	0.000481758	0	5	0	
0.119167	0.0193104	-0.00200141	0.000510065	0.000363744	0	5	0	
0.119333	-0.0250952	-0.00394205	0.000549219	0.000250305	0	5	0	
0.1195	0.0254767	-0.00869276	0.000615346	0.000319275	0	5	0	
0.119667	-0.0256146	0.0211851	0.000645645	0.000421895	0	5	0	
0.119833	0.0230223	-0.0124473	0.000641758	0.000564309	0	5	0	
0.12	-0.0201245	0.00515397	0.000599377	0.000471963	0	5	0	
0.120167	0.0164692	-0.00462487	0.000552919	0.000352947	0	5	0	
0.120333	-0.018948	0.0103679	0.000528752	0.000311011	0	5	0	
0.1205	0.02354	-0.0118869	0.000559754	0.000322161	0	5	0	
0.120667	-0.0268979	0.0089256	0.000606446	0.000288026	0	5	0	
0.120833	0.0236142	-0.00382936	0.000611466	0.000199765	0	5	0	
0.121	-0.0187144	0.00203471	0.000553948	0.000119187	0	5	0	
0.121167	0.0127804	-0.00133835	0.000476133	6.73043E-05	0	5	0	
0.121333	-0.0149353	-0.00264905	0.000442938	4.74767E-05	0	5	0	
0.1215	0.0180286	0.00566237	0.000482279	4.94125E-05	0	5	0	
0.121667	-0.0226749	-0.00376059	0.000554683	6.62775E-05	0	5	0	
0.121833	0.0249892	-0.00287374	0.000604507	9.76459E-05	0	5	0	
0.122	-0.0210555	0.00685827	0.00057652	0.00010558	0	5	0	
0.122167	0.00717712	0.00228608	0.000470269	0.00017396	0	5	0	
0.122333	-0.00780694	-0.0197362	0.000401828	0.000265406	0	5	0	
0.1225	0.0333272	0.0185312	0.000540804	0.000340319	0	5	0	
0.122667	-0.0615921	-0.00236669	0.000832876	0.000400344	0	5	0	
0.122833	0.0584163	-0.0279092	0.00111787	0.000499442	0	5	0	
0.123	-0.0415075	0.0395206	0.00111521	0.000616354	0	5	0	
0.123167	0.0385876	-0.0223743	0.000960151	0.000663634	0	5	0	
0.123333	-0.0223222	-0.00582514	0.000753669	0.000645621	0	5	0	
0.1235	-0.000682205	0.0109494	0.000554684	0.000554913	0	5	0	
0.123667	-0.00129786	-0.0128156	0.000473429	0.000418067	0	5	0	
0.123833	0.0156612	0.00822953	0.000654014	0.000276181	0	5	0	
0.124	-0.029504	0.0076113	0.00095121	0.000296436	0	5	0	
0.124167	0.0456379	-0.0100345	0.00112011	0.00032135	0	5	0	
0.124333	-0.0453146	-0.0269918	0.00104713	0.000422133	0	5	0	
0.1245	0.0278951	0.0704399	0.00091651	0.000557231	0	5	0	
0.124667	-0.0143337	-0.0666145	0.000801181	0.000923906	0	5	0	
0.124833	0.0144562	0.0339654	0.000675097	0.00110905	0	5	0	
0.125	-0.0139939	-0.0341678	0.000543626	0.00104922	0	5	0	
0.125167	0.0100227	0.0328218	0.00043656	0.000812488	0	5	0	
0.125333	-0.0108306	-0.0107491	0.000384779	0.000604634	0	5	0	
0.1255	0.010516	0.00776646	0.000442071	0.000521473	0	5	0	
0.125667	-0.0136095	-0.0255195	0.000515734	0.0007173	0	5	0	
0.125833	0.0210328	0.0293782	0.000501579	0.00104627	0	5	0	
0.126	-0.0189113	-0.0255464	0.000443782	0.00119817	0	5	0	
0.126167	0.0025154	-0.00029927	0.000368137	0.000921475	0	5	0	
0.126333	0.00396395	0.00861303	0.000376236	0.000552246	0	5	0	
0.1265	0.00201832	0.00317101	0.000438919	0.000428287	0	5	0	
0.126667	-0.00717582	-0.0118167	0.000536379	0.000411297	0	5	0	
0.126833	0.0130517	0.00381791	0.000640915	0.000339934	0	5	0	
0.127	-0.0240482	-0.00169642	0.000741192	0.000191654	0	5	0	
0.127167	0.024995	0.00923695	0.000807747	0.000146657	0	5	0	
0.127333	-0.0193507	-0.0244548	0.000706479	0.000197614	0	5	0	
0.1275	0.0133355	0.0160033	0.000509317	0.000327236	0	5	0	
0.127667	-0.00980709	0.00398935	0.000323709	0.000412692	0	5	0	
0.127833	0.00691626	-0.009806	0.000269986	0.000371382	0	5	0	
0.128	-0.00295505	-0.00677378	0.000261923	0.000371414	0	5	0	
0.128167	-0.00292951	0.028445	0.000311855	0.000391322	0	5	0	
0.128333	0.000470768	-0.0256894	0.000448397	0.000496626	0	5	0	
0.1285	0.0189569	0.00125587	0.000669949	0.000554722	0	5	0	
0.128667	-0.0376854	0.0151017	0.000866469	0.000570918	0	5	0	
0.128833	0.0333908	-0.0206689	0.000909878	0.000527065	0	5	0	
0.129	-0.0160441	0.018313	0.000758628	0.000437799	0	5	0	
0.129167	0.00907002	-0.00672637	0.00054926	0.000377429	0	5	0	
0.129333	-0.011297	-0.00709868	0.00042473	0.000431939	0	5	0	
0.1295	0.009679	0.0204128	0.000392536	0.000420628	0	5	0	
0.129667	-0.0120964	-0.0202649	0.00045255	0.000404939	0	5	0	
0.129833	0.0251463	0.0129231	0.000558747	0.000352355	0	5	0	
0.13	-0.0260766	-0.00685459	0.000621364	0.000327116	0	5	0	
0.130167	0.0105111	-0.000588797	0.000560232	0.000274793	0	5	0	
0.130333	-0.00587543	0.00381095	0.000406022	0.000208184	0	5	0	
0.1305	0.0180149	0.00406062	0.000393682	0.000141013	0	5	0	
0.130667	-0.021357	-0.00741688	0.000459241	9.72977E-05	0	5	0	
0.130833	0.0158344	0.00270232	0.000510863	0.000101854	0	5	0	
0.131	-0.0180301	0.00155329	0.000474027	0.000119299	0	5	0	
0.131167	0.0252479	0.000419926	0.00046231	9.73877E-05	0	5	0	
0.131333	-0.0239688	-0.00463518	0.000488662	8.04974E-05	0	5	0	
0.1315	0.01927	0.00757726	0.00049168	9.81106E-05	0	5	0	
0.131667	-0.0157862	-0.0109821	0.000456763	0.000147929	0	5	0	
0.131833	0.0163733	0.00616052	0.000428934	0.000167943	0	5	0	
0.132	-0.0189803	-0.0061759	0.00043084	0.000155583	0	5	0	
0.132167	0.0195788	0.0101993	0.000447176	0.000174106	0	5	0	
0.132333	-0.0184332	-0.0141409	0.000455469	0.000208511	0	5	0	
0.1325	0.0201978	0.00961219	0.000464939	0.000242037	0	5	0	
0.132667	-0.0220333	-0.00313612	0.000491613	0.000211484	0	5	0	
0.132833	0.0256574	-0.000725591	0.000526473	0.000151154	0	5	0	
0.133	-0.028111	-0.00498691	0.00055856	0.000142528	0	5	0	
0.133167	0.0244568	0.00472936	0.00055251	0.000146191	0	5	0	
0.133333	-0.0197983	0.000961319	0.000502613	0.000129088	0	5	0	
0.1335	0.0143492	-0.00180118	0.000424016	7.06835E-05	0	5	0	
0.133667	-0.0073652	-0.00214231	0.000343687	9.16399E-05	0	5	0	
0.133833	0.00907554	0.0106064	0.000324739	0.000159062	0	5	0	
0.134	-0.0196302	-0.00994728	0.00040079	0.000222667	0	5	0	
0.134167	0.0311826	0.00301719	0.000544397	0.000187873	0	5	0	
0.134333	-0.0378248	-0.00161837	0.000667107	0.000146	0	5	0	
0.1345	0.0350015	0.00353377	0.000699532	0.000105397	0	5	0	
0.134667	-0.0221863	-0.00164115	0.000643268	0.000100369	0	5	0	
0.134833	0.0114272	0.0045949	0.000519546	0.000109679	0	5	0	
0.135	-0.00935249	-0.00135271	0.000374807	0.000137775	0	5	0	
0.135167	0.0177862	0.00118859	0.000327746	0.0001357	0	5	0	
0.135333	-0.026345	-0.00191195	0.000410123	0.000102214	0	5	0	
0.1355	0.0312934	0.00386734	0.000546784	6.64036E-05	0	5	0	
0.135667	-0.0307845	-0.00199004	0.00061749	4.63862E-05	0	5	0	
0.135833	0.0226404	-0.000914798	0.000587537	6.40356E-05	0	5	0	
0.136	-0.0152048	0.00389567	0.000498894	5.97393E-05	0	5	0	
0.136167	0.0165443	0.000198543	0.000424477	6.30753E-05	0	5	0	
0.136333	-0.0226353	0.000461842	0.000432778	6.21523E-05	0	5	0	
0.1365	0.0286563	0.00322235	0.000502918	9.94212E-05	0	5	0	
0.136667	-0.0308937	-0.00864857	0.000566818	0.000161785	0	5	0	
0.136833	0.0241478	0.0113123	0.000559301	0.000202655	0	5	0	
0.137	-0.0159634	-0.00859274	0.000491161	0.000206542	0	5	0	
0.137167	0.0131155	0.00447002	0.000396289	0.000180559	0	5	0	
0.137333	-0.0171594	-0.0028459	0.00034237	0.000134949	0	5	0	
0.1375	0.0192493	0.00192207	0.000356854	9.29395E-05	0	5	0	
0.137667	-0.020077	-0.00369437	0.000405426	6.47636E-05	0	5	0	
0.137833	0.0281171	0.00706452	0.000463747	8.06693E-05	0	5	0	
0.138	-0.0407575	-0.00863823	0.000547142	0.000108562	0	5	0	
0.138167	0.0410374	0.00469166	0.000655477	0.000139019	0	5	0	
0.138333	-0.0297837	-0.0048186	0.000705814	0.00013506	0	5	0	
0.1385	0.022708	0.00515153	0.000657121	0.000156001	0	5	0	
0.138667	-0.0174764	-0.0114056	0.000564014	0.000198904	0	5	0	
0.138833	0.0039948	0.00910029	0.000474875	0.000238525	0	5	0	
0.139	0.000152248	0.00119075	0.000328646	0.000200327	0	5	0	
0.139167	0.0111962	-0.00482326	0.000330797	0.000201306	0	5	0	
0.139333	-0.0235069	-0.0110677	0.00040246	0.000381531	0	5	0	
0.1395	0.0251677	0.0304451	0.000573112	0.000631711	0	5	0	
0.139667	-0.0342936	-0.032889	0.000645004	0.00079641	0	5	0	
0.139833	0.0493105	0.0255459	0.00072022	0.000758684	0	5	0	
0.14	-0.0463865	-0.0294432	0.000809388	0.000672553	0	5	0	
0.140167	0.0258064	0.0275208	0.000825149	0.000598509	0	5	0	
0.140333	-0.0148204	-0.00953431	0.000703784	0.000496785	0	5	0	
0.1405	0.0101229	-0.0153861	0.000503853	0.000519926	0	5	0	
0.140667	-0.00800002	0.0341468	0.00031765	0.000498533	0	5	0	
0.140833	0.0119493	-0.0194324	0.000264132	0.000573507	0	5	0	
0.141	-0.0215994	-0.00548944	0.000364067	0.000552663	0	5	0	
0.141167	0.0306929	0.00233767	0.000537027	0.000447365	0	5	0	
0.141333	-0.0338932	-0.00128053	0.00066089	0.000294824	0	5	0	
0.1415	0.0242433	0.0257129	0.00065351	0.000269334	0	5	0	
0.141667	-0.0111604	-0.0442862	0.00053095	0.000440546	0	5	0	
0.141833	0.0138213	0.036471	0.00042213	0.000656698	0	5	0	
0.142	-0.027375	-0.0167713	0.000437058	0.000683759	0	5	0	
0.142167	0.0290498	0.0112735	0.00051461	0.000558492	0	5	0	
0.142333	-0.0200019	-0.0152921	0.00054259	0.000384736	0	5	0	
0.1425	0.0131186	0.0131	0.000462027	0.000275	0	5	0	
0.142667	-0.00646947	-0.013444	0.000364568	0.000265646	0	5	0	
0.142833	0.00205451	0.0218878	0.000308137	0.000326351	0	5	0	
0.143	-0.00953424	-0.0470453	0.000349663	0.000478853	0	5	0	
0.143167	0.0232514	0.0484476	0.000462314	0.00068984	0	5	0	
0.143333	-0.0323832	-0.0180515	0.000577356	0.000804901	0	5	0	
0.1435	0.0314526	-0.0155457	0.000625659	0.000798478	0	5	0	
0.143667	-0.0259641	0.0160261	0.000591173	0.000573883	0	5	0	
0.143833	0.0192204	-0.00218745	0.000525956	0.000542489	0	5	0	
0.144	-0.0100074	-0.0141267	0.00044116	0.000530725	0	5	0	
0.144167	0.00689839	0.0140676	0.000342276	0.000639192	0	5	0	
0.144333	-0.0163763	-0.0111165	0.00032834	0.000555218	0	5	0	
0.1445	0.0233701	0.00854293	0.000363294	0.00042494	0	5	0	
0.144667	-0.0220266	-0.00654885	0.000443845	0.000269535	0	5	0	
0.144833	0.0209236	0.00452181	0.00046862	0.000161372	0	5	0	
0.145	-0.0223836	-0.00806976	0.000477851	0.000112168	0	5	0	
0.145167	0.0222506	0.00969591	0.000481366	0.000132694	0	5	0	
0.145333	-0.0200597	-0.00358178	0.000460601	0.000152334	0	5	0	
0.1455	0.0198565	0.00194611	0.00043133	0.000141001	0	5	0	
0.145667	-0.0262557	-0.00515667	0.000437858	0.000138218	0	5	0	
0.145833	0.033094	-0.000843271	0.000494986	0.000105966	0	5	0	
0.146	-0.0257488	0.00715071	0.000542663	0.000105228	0	5	0	
0.146167	0.0123639	0.0017787	0.000505844	0.00015572	0	5	0	
0.146333	-0.0148738	-0.0150489	0.000436598	0.000251181	0	5	0	
0.1465	0.0246249	0.00740899	0.000426014	0.000293758	0	5	0	
0.146667	-0.024505	-0.000494703	0.000459932	0.000232081	0	5	0	
0.146833	0.0211486	-0.00226086	0.000491016	0.000140276	0	5	0	
0.147	-0.02715	0.0081921	0.000495381	0.000127167	0	5	0	
0.147167	0.0305119	-0.0245086	0.000532757	0.000192365	0	5	0	
0.147333	-0.0248669	0.0173059	0.000552197	0.000300804	0	5	0	
0.1475	0.0146086	-0.00320807	0.000500411	0.000423659	0	5	0	
0.147667	-0.0169543	-0.0124651	0.000419648	0.000524766	0	5	0	
0.147833	0.028158	0.0169544	0.000425475	0.000547834	0	5	0	
0.148	-0.0294285	-0.0141329	0.000483188	0.000452342	0	5	0	
0.148167	0.0180018	-0.00551116	0.000512838	0.000350968	0	5	0	
0.148333	-0.0145785	0.0142566	0.000449239	0.000296913	0	5	0	
0.1485	0.0207893	-0.013163	0.000419011	0.00029317	0	5	0	
0.148667	-0.0268733	0.00150522	0.000438468	0.00027522	0	5	0	
0.148833	0.026778	-0.000956947	0.000500185	0.000199065	0	5	0	
0.149	-0.0268709	0.00547679	0.00051917	0.000145158	0	5	0	
0.149167	0.0254622	-0.00805024	0.000517114	9.86486E-05	0	5	0	
0.149333	-0.0212436	-0.0015084	0.000488167	0.000114479	0	5	0	
0.1495	0.0183728	0.00570893	0.000444467	0.000138432	0	5	0	
0.149667	-0.0232877	-0.00409643	0.000416568	0.000131017	0	5	0	
0.149833	0.0296391	-0.000369495	0.000448581	0.000111553	0	5	0	
0.15	-0.0311546	-0.000272288	0.000510962	9.93864E-05	0	5	0	
0.150167	0.0258192	0.00320504	0.00055457	0.000106752	0	5	0	
0.150333	-0.0219772	-0.00380354	0.000529654	0.000103937	0	5	0	
0.1505	0.0227092	-0.00196124	0.000486109	7.47091E-05	0	5	0	
0.150667	-0.0242826	3.26514E-05	0.000458055	6.1986E-05	0	5	0	
0.150833	0.0247943	0.00873482	0.000471218	0.000103735	0	5	0	
0.151	-0.0270558	-0.0148616	0.000505824	0.000157595	0	5	0	
0.151167	0.0293523	0.0109786	0.000555045	0.000237765	0	5	0	
0.151333	-0.02818	-0.00478636	0.000581056	0.000286364	0	5	0	
0.1515	0.0247867	0.00494178	0.000566393	0.000275675	0	5	0	
0.151667	-0.0222511	-0.00813583	0.000514436	0.000215967	0	5	0	
0.151833	0.0207134	0.0114544	0.000467165	0.00017404	0	5	0	
0.152	-0.0198273	-0.0157704	0.000440851	0.000219011	0	5	0	
0.152167	0.0206551	0.0158931	0.000427123	0.000271857	0	5	0	
0.152333	-0.0217622	-0.0119177	0.000420089	0.000295731	0	5	0	
0.1525	0.0234615	0.00663558	0.000430016	0.000247096	0	5	0	
0.152667	-0.0273358	-0.00460745	0.000463778	0.000184756	0	5	0	
0.152833	0.0293386	0.00492792	0.000501031	0.000140586	0	5	0	
0.153	-0.0240091	-0.00598522	0.000515462	0.000169144	0	5	0	
0.153167	0.0195913	0.00584799	0.000488311	0.000195992	0	5	0	
0.153333	-0.0226904	-0.00154002	0.000453602	0.000164426	0	5	0	
0.1535	0.0292181	-0.00102609	0.000465118	0.00010841	0	5	0	
0.153667	-0.0289927	-0.000841003	0.000512573	5.25657E-05	0	5	0	
0.153833	0.0235293	0.00272331	0.000537172	5.07438E-05	0	5	0	
0.154	-0.0203114	-0.00336713	0.000505572	5.35131E-05	0	5	0	
0.154167	0.0234343	0.00695253	0.000465211	8.19784E-05	0	5	0	
0.154333	-0.0269045	-0.00970179	0.000468212	0.000113338	0	5	0	
0.1545	0.0267165	0.00792804	0.000496995	0.000147743	0	5	0	
0.154667	-0.0212404	-0.00313379	0.000502075	0.00016091	0	5	0	
0.154833	0.0204485	0.000943143	0.000472957	0.000137759	0	5	0	
0.155	-0.0285962	-0.00244663	0.000460325	0.000107456	0	5	0	
0.155167	0.0244884	0.00103733	0.000465251	9.29755E-05	0	5	0	
0.155333	-0.000827857	-0.000376335	0.000454767	0.000150152	0	5	0	
0.1555	-0.0077251	0.0220215	0.000320096	0.000362759	0	5	0	
0.155667	-0.0221608	-0.0584446	0.000439519	0.000696227	0	5	0	
0.155833	0.048154	0.0588703	0.000612101	0.000971126	0	5	0	
0.156	-0.0361317	-0.0157337	0.000830357	0.00100676	0	5	0	
0.156167	0.016236	-0.0134539	0.000740642	0.000744797	0	5	0	
0.156333	-0.0199763	-0.00907898	0.000556542	0.000616981	0	5	0	
0.1565	0.021631	0.0249136	0.000448014	0.000561011	0	5	0	
0.156667	-0.00643397	0.0068709	0.000393088	0.000516719	0	5	0	
0.156833	0.00343199	-0.0363776	0.000324417	0.000420361	0	5	0	
0.157	-0.0258125	0.0214391	0.000343357	0.000541253	0	5	0	
0.157167	0.0454403	0.00930765	0.000451458	0.000825482	0	5	0	
0.157333	-0.0365277	0.0044709	0.000650211	0.000775056	0	5	0	
0.1575	0.0157764	-0.0200433	0.000683759	0.000508108	0	5	0	
0.157667	-0.012177	-0.00166503	0.000539275	0.000387218	0	5	0	
0.157833	0.0292433	0.0390921	0.000466196	0.000587088	0	5	0	
0.158	-0.0384497	-0.0280948	0.000507992	0.000699509	0	5	0	
0.158167	0.0304338	-0.00937706	0.000620463	0.000815862	0	5	0	
0.158333	-0.020688	0.0254227	0.000607956	0.000693498	0	5	0	
0.1585	0.0226035	0.00715351	0.000523838	0.000643927	0	5	0	
0.158667	-0.0253915	-0.0205592	0.000479704	0.000399498	0	5	0	
0.158833	0.0239357	0.00190985	0.000480622	0.000398384	0	5	0	
0.159	-0.0230303	0.021253	0.000489734	0.000407842	0	5	0	
0.159167	0.0256449	-0.00953285	0.000488673	0.000426976	0	5	0	
0.159333	-0.0251421	-0.0232452	0.000509282	0.000492181	0	5	0	
0.1595	0.021185	0.03282	0.000527913	0.000504985	0	5	0	
0.159667	-0.019853	-0.00380143	0.00053062	0.000613045	0	5	0	
0.159833	0.0281812	-0.0109682	0.000530438	0.000589868	0	5	0	
0.16	-0.0379256	0.00446431	0.000576166	0.000474419	0	5	0	
0.160167	0.0361541	0.00794799	0.000631246	0.000283991	0	5	0	
0.160333	-0.0206792	-0.0038801	0.000634171	0.000152294	0	5	0	
0.1605	0.00354423	0.00102325	0.00053793	0.000142214	0	5	0	
0.160667	2.32446E-05	-0.0167169	0.000340447	0.000224255	0	5	0	
0.160833	0.0144449	0.0344437	0.000288872	0.000323525	0	5	0	
0.161	-0.0313377	-0.0186735	0.000390292	0.000466146	0	5	0	
0.161167	0.0375458	-0.00944498	0.00060281	0.000567303	0	5	0	
0.161333	-0.0349845	0.0127455	0.000692369	0.000494183	0	5	0	
0.1615	0.0320645	0.00423108	0.000679021	0.000419405	0	5	0	
0.161667	-0.0328177	-0.0146103	0.000643799	0.000261549	0	5	0	
0.161833	0.0291767	-0.00480811	0.000612121	0.000262772	0	5	0	
0.162	-0.0155553	0.0115572	0.000544684	0.000199762	0	5	0	
0.162167	0.0128622	0.0157904	0.000438279	0.000358917	0	5	0	
0.162333	-0.0278436	-0.0510059	0.000407468	0.000483591	0	5	0	
0.1625	0.0385313	0.0281263	0.000483729	0.00074101	0	5	0	
0.162667	-0.030546	0.0162173	0.000601199	0.000956977	0	5	0	
0.162833	0.0267339	-0.0259349	0.000627006	0.000943628	0	5	0	
0.163	-0.0337451	-0.00910036	0.000616119	0.000714316	0	5	0	
0.163167	0.0354885	0.0111958	0.000618077	0.000355041	0	5	0	
0.163333	-0.0259551	0.00681867	0.000620053	0.00032066	0	5	0	
0.1635	0.0201674	6.0781E-05	0.00056138	0.000262021	0	5	0	
0.163667	-0.0260927	-0.0354435	0.00051173	0.000348917	0	5	0	
0.163833	0.0336296	0.0398815	0.000532683	0.000391446	0	5	0	
0.164	-0.0328065	-0.014612	0.000588067	0.000647126	0	5	0	
0.164167	0.021843	-0.00237158	0.00058967	0.00061489	0	5	0	
0.164333	-0.0162688	-0.0156074	0.0005015	0.000516728	0	5	0	
0.1645	0.0206003	0.0344722	0.000423009	0.000435366	0	5	0	
0.164667	-0.0279244	-0.0260483	0.000420315	0.000487474	0	5	0	
0.164833	0.0282028	0.00279112	0.000475019	0.000556635	0	5	0	
0.165	-0.0259201	0.00446399	0.000513728	0.000420591	0	5	0	
0.165167	0.0240123	0.00851724	0.000506795	0.000339433	0	5	0	
0.165333	-0.0255421	-0.0163363	0.000487458	0.000256343	0	5	0	
0.1655	0.0280433	0.00855476	0.000492905	0.000279932	0	5	0	
0.165667	-0.0273909	0.00109849	0.000506538	0.000210143	0	5	0	
0.165833	0.0249741	0.00156172	0.000511263	0.000144786	0	5	0	
0.166	-0.0263967	-0.00832475	0.000503229	0.000150298	0	5	0	
0.166167	0.0280484	0.00685769	0.000503545	0.000156565	0	5	0	
0.166333	-0.0279409	0.00123746	0.000517687	0.000190618	0	5	0	
0.1665	0.0262561	-0.00555793	0.00052419	0.000180892	0	5	0	
0.166667	-0.0233513	0.00282483	0.000506536	0.000164978	0	5	0	
0.166833	0.0235817	0.00364828	0.00047889	0.000109042	0	5	0	
0.167	-0.0261268	-0.00620667	0.000471234	7.88647E-05	0	5	0	
0.167167	0.0266853	0.00325573	0.000482382	0.00012363	0	5	0	
0.167333	-0.0278797	-0.0036777	0.00050704	0.000160423	0	5	0	
0.1675	0.0265844	0.00976456	0.000518128	0.00016692	0	5	0	
0.167667	-0.0253597	-0.0174189	0.000510014	0.000186243	0	5	0	
0.167833	0.0250694	0.0130014	0.000493905	0.000229489	0	5	0	
0.168	-0.0247566	-0.00535674	0.000478989	0.000265802	0	5	0	
0.168167	0.0244695	0.00553375	0.000477377	0.000231098	0	5	0	
0.168333	-0.0269451	-0.00933288	0.000480826	0.000190701	0	5	0	
0.1685	0.0273083	0.0101111	0.000495836	0.000171792	0	5	0	
0.168667	-0.028647	-0.00659499	0.000509737	0.000174357	0	5	0	
0.168833	0.0284161	-7.73016E-05	0.000528889	0.00016468	0	5	0	
0.169	-0.0265459	-0.00240343	0.000526971	0.000117273	0	5	0	
0.169167	0.0227129	0.0101064	0.000518117	9.85711E-05	0	5	0	
0.169333	-0.0244506	-0.00878794	0.000488219	0.000112851	0	5	0	
0.1695	0.028403	0.00596294	0.00048777	0.000147935	0	5	0	
0.169667	-0.0292805	-0.00435977	0.000505072	0.00015445	0	5	0	
0.169833	0.0271349	0.00739466	0.000535009	0.000142818	0	5	0	
0.17	-0.027112	-0.00921171	0.000533886	0.000163677	0	5	0	
0.170167	0.0269536	0.00540278	0.00053143	0.000188926	0	5	0	
0.170333	-0.0267232	-0.00154876	0.000518952	0.000187352	0	5	0	
0.1705	0.026994	0.00410475	0.000517398	0.000137541	0	5	0	
0.170667	-0.0225333	-0.0100677	0.000498519	0.000125512	0	5	0	
0.170833	0.0181198	0.0185599	0.00045901	0.000165276	0	5	0	
0.171	-0.025774	-0.017359	0.000441871	0.000260464	0	5	0	
0.171167	0.0354697	0.00325178	0.000481693	0.000322639	0	5	0	
0.171333	-0.026957	0.00893079	0.000545542	0.000314001	0	5	0	
0.1715	0.00831142	-0.00131071	0.000530984	0.000295136	0	5	0	
0.171667	-0.0111913	-0.0210832	0.00042064	0.000407219	0	5	0	
0.171833	0.0341404	0.03392	0.000428865	0.000533699	0	5	0	
0.172	-0.0411972	-0.0249894	0.000527963	0.000610112	0	5	0	
0.172167	0.0286772	0.00949417	0.000660437	0.000535033	0	5	0	
0.172333	-0.0257092	0.00279497	0.000636961	0.000448742	0	5	0	
0.1725	0.0305425	-0.0147178	0.000576977	0.000376588	0	5	0	
0.172667	-0.025142	0.0233774	0.000533395	0.000339984	0	5	0	
0.172833	0.0105557	-0.0134314	0.000490424	0.00035981	0	5	0	
0.173	-0.00889073	-0.0134171	0.000385545	0.000464927	0	5	0	
0.173167	0.0263404	0.020956	0.000379668	0.000480887	0	5	0	
0.173333	-0.0406784	-0.00887419	0.000494324	0.000437913	0	5	0	
0.1735	0.0337483	0.000987235	0.000644139	0.000310507	0	5	0	
0.173667	-0.0170011	-0.00568435	0.000646096	0.000198141	0	5	0	
0.173833	0.0142017	0.0141762	0.00050464	0.000162365	0	5	0	
0.174	-0.0251284	-0.0139422	0.000412656	0.000177066	0	5	0	
0.174167	0.0250439	0.00492503	0.000397482	0.000228558	0	5	0	
0.174333	-0.0166869	-0.00243	0.000423742	0.000216887	0	5	0	
0.1745	0.0187713	0.0041745	0.000409977	0.000155461	0	5	0	
0.174667	-0.0294656	-0.00509169	0.000410912	0.000117859	0	5	0	
0.174833	0.0314378	0.00735937	0.000466297	0.00011303	0	5	0	
0.175	-0.0230777	-0.00964315	0.000523563	0.000134719	0	5	0	
0.175167	0.0165054	0.00391636	0.000499616	0.00014584	0	5	0	
0.175333	-0.0186056	0.0117903	0.000425534	0.000188096	0	5	0	
0.1755	0.0234837	-0.00946012	0.000390007	0.000201991	0	5	0	
0.175667	-0.0255407	-0.0152933	0.000408246	0.00037689	0	5	0	
0.175833	0.0214717	0.0293606	0.000444012	0.000497876	0	5	0	
0.176	-0.018865	-0.0234591	0.000433655	0.000593921	0	5	0	
0.176167	0.0232921	0.0184685	0.000413732	0.000490505	0	5	0	
0.176333	-0.0267026	-0.0113231	0.000419115	0.000399314	0	5	0	
0.1765	0.0272106	-0.00729976	0.000461144	0.000357006	0	5	0	
0.176667	-0.0278864	0.016684	0.000504842	0.000326337	0	5	0	
0.176833	0.030128	-0.0154866	0.000537528	0.000313585	0	5	0	
0.177	-0.0332687	0.0152224	0.000565885	0.000301971	0	5	0	
0.177167	0.0341507	-0.011927	0.000599098	0.000345962	0	5	0	
0.177333	-0.0274858	-0.00644315	0.00061119	0.000411935	0	5	0	
0.1775	0.0194184	0.0151295	0.000579529	0.000386341	0	5	0	
0.177667	-0.0212011	-0.00162577	0.000510646	0.000379903	0	5	0	
0.177833	0.028845	-0.0150659	0.000478046	0.000360443	0	5	0	
0.178	-0.0238391	0.00298251	0.000480438	0.000327876	0	5	0	
0.178167	0.0115068	0.000131874	0.000458817	0.000246085	0	5	0	
0.178333	-0.0191453	0.0054052	0.000443848	0.000121084	0	5	0	
0.1785	0.0488269	-0.000115238	0.000557805	8.51628E-05	0	5	0	
0.178667	-0.0588447	-0.0107035	0.000768452	7.62168E-05	0	5	0	
0.178833	0.0399614	0.0107769	0.000934872	0.000148185	0	5	0	
0.179	-0.0231976	-0.00599439	0.000872911	0.000246596	0	5	0	
0.179167	0.0254358	0.0151923	0.000699934	0.000296412	0	5	0	
0.179333	-0.0212974	-0.0252149	0.000525765	0.000332214	0	5	0	
0.1795	0.00401629	0.0174376	0.000447987	0.000413935	0	5	0	
0.179667	0.00508984	-0.0132544	0.000320177	0.000466895	0	5	0	
0.179833	0.0148048	0.0193612	0.000359853	0.000464859	0	5	0	
0.18	-0.0359997	-0.00469038	0.000461474	0.000378967	0	5	0	
0.180167	0.0329669	-0.0119648	0.00064347	0.000333489	0	5	0	
0.180333	-0.0204401	0.00135506	0.000622239	0.000346945	0	5	0	
0.1805	0.0247465	0.0232514	0.000527074	0.000532931	0	5	0	
0.180667	-0.0323801	-0.0272845	0.000506375	0.000655948	0	5	0	
0.180833	0.0299389	0.0142138	0.000527225	0.000631254	0	5	0	
0.181	-0.0218484	-0.00294903	0.00055926	0.000385192	0	5	0	
0.181167	0.0173582	0.0080094	0.000511963	0.000210713	0	5	0	
0.181333	-0.0211401	-0.0186444	0.000450394	0.000180883	0	5	0	
0.1815	0.0261323	0.0137131	0.000419689	0.000231102	0	5	0	
0.181667	-0.0223404	-0.00627877	0.000431316	0.000287109	0	5	0	
0.181833	0.0194822	0.00456444	0.000438459	0.000239264	0	5	0	
0.182	-0.0229653	-0.0100181	0.000422239	0.000193034	0	5	0	
0.182167	0.0261335	0.00964109	0.000423725	0.000151818	0	5	0	
0.182333	-0.0256108	-0.00436668	0.000456706	0.000170535	0	5	0	
0.1825	0.0245824	-0.000307921	0.000483237	0.000144522	0	5	0	
0.182667	-0.024877	-0.00333532	0.00048733	0.00011964	0	5	0	
0.182833	0.0255762	0.00955542	0.000486202	0.000127715	0	5	0	
0.183	-0.0268752	-0.0134826	0.0004907	0.000165096	0	5	0	
0.183167	0.0286071	0.00631446	0.000503858	0.000204658	0	5	0	
0.183333	-0.0274253	-0.00467234	0.000517658	0.000186032	0	5	0	
0.1835	0.0274292	0.0105016	0.000522458	0.000170369	0	5	0	
0.183667	-0.0265125	-0.0138596	0.000523451	0.000175801	0	5	0	
0.183833	0.0248774	0.00916111	0.000510351	0.000208477	0	5	0	
0.184	-0.0239973	-0.00596705	0.000494768	0.000219068	0	5	0	
0.184167	0.0230374	0.00993942	0.00047002	0.000200936	0	5	0	
0.184333	-0.0183	-0.0135371	0.000442605	0.000195495	0	5	0	
0.1845	0.0198053	0.00975269	0.000413282	0.00020996	0	5	0	
0.184667	-0.0232728	-0.00575665	0.00040588	0.000203541	0	5	0	
0.184833	0.0258024	0.00429749	0.000423884	0.000169101	0	5	0	
0.185	-0.0279635	-0.00907909	0.000466938	0.000148431	0	5	0	
0.185167	0.0282712	0.0109912	0.000501346	0.000160424	0	5	0	
0.185333	-0.0253645	-0.00384882	0.000521815	0.000169512	0	5	0	
0.1855	0.022232	0.00123472	0.000511881	0.000147947	0	5	0	
0.185667	-0.0235619	-0.00738801	0.000480265	0.00014612	0	5	0	
0.185833	0.0233359	0.0110111	0.00045562	0.000145389	0	5	0	
0.186	-0.0226007	-0.00330707	0.000442423	0.000181	0	5	0	
0.186167	0.0202509	0.000842202	0.000435562	0.000148951	0	5	0	
0.186333	-0.0194488	-0.00269217	0.000414867	0.000129637	0	5	0	
0.1865	0.0186793	0.00253609	0.000402087	8.22826E-05	0	5	0	
0.186667	-0.0205161	-0.00738659	0.000382914	0.000108873	0	5	0	
0.186833	0.0220334	0.037521	0.000391282	0.000265464	0	5	0	
0.187	-0.015387	-0.067976	0.000379928	0.000563079	0	5	0	
0.187167	0.00639171	0.0660794	0.000329906	0.000944792	0	5	0	
0.187333	-0.0179832	-0.0459939	0.000265926	0.00117308	0	5	0	
0.1875	0.0281911	0.0104753	0.000291632	0.00119622	0	5	0	
0.187667	-0.0101851	0.0149281	0.000379395	0.00101203	0	5	0	
0.187833	-0.0125903	-0.0188717	0.000389308	0.000688656	0	5	0	
0.188	-0.00113011	-0.0241792	0.000361788	0.00070861	0	5	0	
0.188167	0.012425	0.046003	0.000272923	0.000888394	0	5	0	
0.188333	-0.00181299	-0.0441486	0.000371128	0.00112057	0	5	0	
0.1885	-0.0146425	0.0338011	0.000517651	0.00108241	0	5	0	
0.188667	0.0213308	-0.0373851	0.000664171	0.000927354	0	5	0	
0.188833	-0.0129073	0.0164533	0.000590737	0.000777371	0	5	0	
0.189	-0.0311179	-0.000647353	0.000529185	0.000556161	0	5	0	
0.189167	0.0600728	-0.0138276	0.000650164	0.000324693	0	5	0	
0.189333	-0.0351041	0.00127515	0.000824472	0.000287344	0	5	0	
0.1895	-0.00547733	0.00999728	0.000896261	0.000391356	0	5	0	
0.189667	-0.0127806	-0.00911986	0.000648384	0.000445577	0	5	0	
0.189833	0.0296887	-0.00998652	0.000528477	0.000349292	0	5	0	
0.19	-0.0125918	0.00138953	0.000401588	0.000190528	0	5	0	
0.190167	0.00476116	0.0235816	0.000435068	0.000239932	0	5	0	
0.190333	-0.0236707	-0.0204318	0.000432315	0.000338454	0	5	0	
0.1905	0.0241564	-0.010177	0.000428788	0.000478333	0	5	0	
0.190667	-0.00850655	0.015034	0.000552099	0.00043258	0	5	0	
0.190833	-0.00640786	0.00215205	0.000565255	0.00045453	0	5	0	
0.191	-0.0107769	-0.0154559	0.000458154	0.000433587	0	5	0	
0.191167	0.0394468	0.00300063	0.000404927	0.000380957	0	5	0	
0.191333	-0.058955	0.0153677	0.000524916	0.000263235	0	5	0	
0.1915	0.0320477	-0.00881961	0.00083942	0.000196147	0	5	0	
0.191667	-0.0102518	-0.0184043	0.000845951	0.000350013	0	5	0	
0.191833	0.0440496	0.0406714	0.000734689	0.000513037	0	5	0	
0.192	-0.0577168	-0.0225104	0.000708337	0.000635396	0	5	0	
0.192167	0.0329219	-0.0506296	0.00103155	0.000874937	0	5	0	
0.192333	-0.0206106	0.101399	0.00138408	0.00113899	0	5	0	
0.1925	-0.0114159	-0.0603471	0.00123211	0.00142261	0	5	0	
0.192667	0.00545599	0.0271755	0.00102349	0.00147824	0	5	0	
0.192833	-0.000212689	-0.00808397	0.000692336	0.00140353	0	5	0	
0.193	0.0186975	-0.00607625	0.000618945	0.00135067	0	5	0	
0.193167	-0.00588162	0.0728071	0.000575347	0.00144333	0	5	0	
0.193333	-0.026014	-0.0948997	0.000633032	0.00166154	0	5	0	
0.1935	0.00603354	0.0546392	0.000734887	0.00168035	0	5	0	
0.193667	-0.0173147	0.0450997	0.000541897	0.00150733	0	5	0	
0.193833	0.0469026	-0.0533364	0.000612153	0.0012586	0	5	0	
0.194	-0.0563348	0.0330857	0.000981323	0.0010986	0	5	0	
0.194167	0.0484131	-0.0276813	0.00169276	0.000923232	0	5	0	
0.194333	0.00927368	0.0563862	0.00214554	0.000811159	0	5	0	
0.1945	-0.0715976	-0.062375	0.00203934	0.00101454	0	5	0	
0.194667	0.0779551	0.0323492	0.0017663	0.00128587	0	5	0	
0.194833	-0.0315464	-0.00749695	0.00136971	0.0012889	0	5	0	
0.195	0.0270486	0.0158873	0.00127348	0.00100943	0	5	0	
0.195167	-0.020842	0.0213414	0.00102279	0.000696489	0	5	0	
0.195333	0.0166312	-0.0544918	0.000764617	0.000744664	0	5	0	
0.1955	0.00889442	0.0612659	0.000485461	0.000847308	0	5	0	
0.195667	-0.0156398	-0.0103073	0.000327176	0.000946616	0	5	0	
0.195833	0.0254405	-0.00273718	0.000421361	0.000892413	0	5	0	
0.196	-0.018799	-0.0118715	0.00065652	0.000576588	0	5	0	
0.196167	0.0178178	0.0722798	0.000951837	0.000602519	0	5	0	
0.196333	-0.0196134	0.0275732	0.00103381	0.000658994	0	5	0	
0.1965	0.00765594	-0.0265696	0.000847136	0.000872718	0	5	0	
0.196667	0.00363895	-0.0156504	0.000550633	0.000685029	0	5	0	
0.196833	-0.0068457	0.0490224	0.000303926	0.000663384	0	5	0	
0.197	0.00136227	-0.0466093	0.000259448	0.000670398	0	5	0	
0.197167	-0.000433409	0.0472874	0.000173475	0.000869749	0	5	0	
0.197333	0.00219709	0.0119585	0.000229428	0.000753362	0	5	0	
0.1975	-0.00180235	0.00852274	0.000268813	0.000692937	0	5	0	
0.197667	-0.0144256	-0.00727167	0.000346923	0.0005081	0	5	0	
0.197833	0.0319733	-0.00567696	0.000383224	0.000423941	0	5	0	
0.198	-0.0359514	-0.015692	0.000474122	0.000450817	0	5	0	
0.198167	0.0102399	0.0155216	0.000642526	0.000510931	0	5	0	
0.198333	0.0169565	0.0161689	0.000721265	0.000536953	0	5	0	
0.1985	-0.00908631	-0.0241075	0.000571659	0.000485814	0	5	0	
0.198667	-0.0200634	-0.000430565	0.000619582	0.000421698	0	5	0	
0.198833	0.0267891	0.0181118	0.000686374	0.000406476	0	5	0	
0.199	-0.0138254	-0.00605482	0.000775571	0.000402967	0	5	0	
0.199167	0.0385295	-0.00319214	0.000590058	0.000328502	0	5	0	
0.199333	-0.0500109	0.00965554	0.000581243	0.000388194	0	5	0	
0.1995	0.00561916	-0.0189487	0.00063149	0.000371406	0	5	0	
0.199667	0.0126114	-0.0153334	0.00076348	0.000393942	0	5	0	
0.199833	-0.0152074	0.0109584	0.000613699	0.000384827	0	5	0	
0.2	0.0174602	-0.0207615	0.000833628	0.000432963	0	5	0	
0.200167	0.0134039	0.0108319	0.000783327	0.00044483	0	5	0	
0.200333	-0.0109955	-0.0170014	0.000726243	0.000501379	0	5	0	
0.2005	-0.0144003	-0.0161535	0.000391418	0.000402225	0	5	0	
0.200667	-0.0165018	0.00199234	0.000343217	0.000344152	0	5	0	
0.200833	-0.0294119	0.0289258	0.000427576	0.000217214	0	5	0	
0.201	0.0268431	0.00749741	0.00078342	0.00033473	0	5	0	
0.201167	0.0525439	-0.0458766	0.00118814	0.000671606	0	5	0	
0.201333	-0.0909699	0.0437304	0.00143291	0.000929595	0	5	0	
0.2015	0.0619851	-0.0197277	0.00149235	0.000950225	0	5	0	
0.201667	-0.0604765	-0.0588203	0.00136816	0.000896857	0	5	0	
0.201833	0.0599523	0.098096	0.00142152	0.00104904	0	5	0	
0.202	-0.12924	-0.079954	0.00152697	0.00156386	0	5	0	
0.202167	0.0764316	0.0626509	0.0017295	0.00245855	0	5	0	
0.202333	-0.0676217	0.0294673	0.0016914	0.002593	0	5	0	
0.2025	0.0727875	-0.0156985	0.00149203	0.00195737	0	5	0	
0.202667	-0.0122164	-0.00158871	0.00122982	0.000919191	0	5	0	
0.202833	-0.0566231	-0.0187188	0.0010243	0.000526482	0	5	0	
0.203	-0.0351654	-0.0734658	0.000888935	0.000854708	0	5	0	
0.203167	0.0428211	0.124506	0.00132103	0.00151586	0	5	0	
0.203333	-0.0972404	-0.0388639	0.00193219	0.0018316	0	5	0	
0.2035	0.0974925	-0.0160019	0.00238868	0.00156756	0	5	0	
0.203667	-0.0503053	0.0226566	0.00199293	0.000837052	0	5	0	
0.203833	0.00578478	0.0230143	0.00140338	0.000529926	0	5	0	
0.204	-0.00361687	-0.0328335	0.000763616	0.000541759	0	5	0	
0.204167	0.0292648	-0.00567499	0.000543567	0.000620814	0	5	0	
0.204333	-0.0721945	0.0454486	0.000651876	0.000661416	0	5	0	
0.2045	0.0822991	-0.0402212	0.00109103	0.00074322	0	5	0	
0.204667	-0.0741731	0.0193872	0.00135184	0.000828612	0	5	0	
0.204833	0.0340843	-0.00271825	0.00154461	0.000730237	0	5	0	
0.205	0.0203271	0.0338073	0.00161715	0.000624994	0	5	0	
0.205167	-0.00587416	-0.0231308	0.00172189	0.000520227	0	5	0	
0.205333	0.00938485	0.0247734	0.00135533	0.000502324	0	5	0	
0.2055	-0.0161671	0.0198538	0.00100577	0.00055888	0	5	0	
0.205667	-0.0262909	-0.0289207	0.000863839	0.000620144	0	5	0	
0.205833	0.0549479	0.0369064	0.0011018	0.000647695	0	5	0	
0.206	-0.0806347	-0.0096286	0.00123782	0.000666484	0	5	0	
0.206167	0.0664554	-0.0159557	0.00135076	0.000602825	0	5	0	
0.206333	-0.0273368	0.0175635	0.001447	0.000561106	0	5	0	
0.2065	-0.00233835	-0.0257146	0.00133983	0.000498064	0	5	0	
0.206667	0.00902816	0.00335822	0.000954554	0.000451657	0	5	0	
0.206833	-0.00979387	0.0230874	0.000551991	0.000650052	0	5	0	
0.207	-0.00516773	-0.0454214	0.000374844	0.000819542	0	5	0	
0.207167	0.0188966	0.0109432	0.000331491	0.000817748	0	5	0	
0.207333	-0.048734	0.00590302	0.000417927	0.000723455	0	5	0	
0.2075	0.0441324	-0.0259789	0.000583999	0.000502932	0	5	0	
0.207667	0.00812996	-0.0132647	0.000896049	0.000492377	0	5	0	
0.207833	-0.0280637	0.010887	0.00115233	0.000481569	0	5	0	
0.208	0.0327247	-0.0296202	0.00111419	0.000549565	0	5	0	
0.208167	0.012663	0.0199764	0.000818701	0.00054689	0	5	0	
0.208333	-0.0376603	-0.00158293	0.000596316	0.000463394	0	5	0	
0.2085	0.053207	-0.030807	0.000612142	0.000442643	0	5	0	
0.208667	-0.0470723	0.04351	0.000865711	0.000531266	0	5	0	
0.208833	0.0294113	-0.0255858	0.00100926	0.000705332	0	5	0	
0.209	-0.00406338	-0.0212182	0.00107675	0.00111622	0	5	0	
0.209167	0.0106367	0.0687865	0.00095109	0.00165953	0	5	0	
0.209333	-0.0293996	-0.0850016	0.000741665	0.00196288	0	5	0	
0.2095	0.0429701	0.036428	0.000667025	0.00171162	0	5	0	
0.209667	-0.0368016	0.0406266	0.000682772	0.00145012	0	5	0	
0.209833	0.0220326	-0.0776852	0.000756436	0.00127131	0	5	0	
0.21	-0.0116986	0.0694105	0.000771564	0.00135744	0	5	0	
0.210167	0.0141945	-0.0704336	0.000658661	0.00136763	0	5	0	
0.210333	-0.0250784	0.0466001	0.000578739	0.00136888	0	5	0	
0.2105	0.0259382	-0.0155547	0.000540773	0.00131355	0	5	0	
0.210667	-0.0196608	-0.0127053	0.000554682	0.000985389	0	5	0	
0.210833	0.0259851	0.0147619	0.000554981	0.000683907	0	5	0	
0.211	-0.0173747	0.00436151	0.000586435	0.000629224	0	5	0	
0.211167	-0.00272538	-0.00964036	0.000587614	0.000634398	0	5	0	
0.211333	-0.015336	-0.00533318	0.000473919	0.000507766	0	5	0	
0.2115	0.0424103	0.0231586	0.000397883	0.000300314	0	5	0	
0.211667	-0.0342508	-0.0123859	0.00047049	0.00024431	0	5	0	
0.211833	0.00928695	0.0028503	0.000785092	0.000319784	0	5	0	
0.212	0.00049065	-0.0113486	0.000988227	0.000287865	0	5	0	
0.212167	-0.00507614	0.0125169	0.000910412	0.00023147	0	5	0	
0.212333	-0.0158775	0.00789514	0.000597798	0.000280543	0	5	0	
0.2125	0.0354715	-0.0231135	0.000381756	0.000425062	0	5	0	
0.212667	-0.0322875	0.0144583	0.000448063	0.000514303	0	5	0	
0.212833	0.0306026	0.0614416	0.000589846	0.000838044	0	5	0	
0.213	-0.0377544	-0.0897057	0.000685568	0.0013167	0	5	0	
0.213167	0.0246043	0.0578913	0.000774761	0.00147825	0	5	0	
0.213333	-0.00929053	-0.00721308	0.000874623	0.00134026	0	5	0	
0.2135	0.00858077	-0.00275697	0.000769963	0.000739212	0	5	0	
0.213667	-0.00945639	-0.0125578	0.000543019	0.000605699	0	5	0	
0.213833	0.00613662	0.0166435	0.000287512	0.000417336	0	5	0	
0.214	-0.0140803	0.00813673	0.00023893	0.000584761	0	5	0	
0.214167	0.0130563	0.0014244	0.0002941	0.000674203	0	5	0	
0.214333	-0.0163164	-0.010041	0.000378398	0.000740411	0	5	0	
0.2145	0.0220203	-0.00625782	0.000386393	0.000601211	0	5	0	
0.214667	-0.0235643	0.0172837	0.000382598	0.00041178	0	5	0	
0.214833	0.00760814	-0.012778	0.000489402	0.000365069	0	5	0	
0.215	0.0032178	-0.0332103	0.000612421	0.0004043	0	5	0	
0.215167	0.00488753	0.0448359	0.000529073	0.000525633	0	5	0	
0.215333	-0.03141	-0.0302776	0.000470125	0.000633771	0	5	0	
0.2155	0.0373133	-0.0144091	0.000434876	0.000589712	0	5	0	
0.215667	-0.0403938	0.0129789	0.000620684	0.000530612	0	5	0	
0.215833	0.0488324	0.0103797	0.000831512	0.000485889	0	5	0	
0.216	-0.0463935	-0.0541801	0.00101058	0.000596782	0	5	0	
0.216167	0.0250426	0.0187784	0.00106256	0.00064551	0	5	0	
0.216333	-0.000494571	0.0133756	0.000811407	0.000518638	0	5	0	
0.2165	-7.23547E-05	-0.034038	0.000445152	0.000479154	0	5	0	
0.216667	-0.0201424	0.0113889	0.000221281	0.000468191	0	5	0	
0.216833	0.04642	0.0139449	0.000311314	0.000421311	0	5	0	
0.217	-0.0436604	-0.0219142	0.000575905	0.000444132	0	5	0	
0.217167	0.0165936	-0.00412274	0.000713861	0.000591446	0	5	0	
0.217333	0.00830331	0.0244934	0.000638579	0.000784185	0	5	0	
0.2175	0.00373441	-0.00572288	0.000391732	0.000724175	0	5	0	
0.217667	-0.0166819	-0.028981	0.000264483	0.000754344	0	5	0	
0.217833	0.0312874	0.0261721	0.000265816	0.000714042	0	5	0	
0.218	-0.0464749	-0.00250831	0.00047499	0.000672581	0	5	0	
0.218167	0.0488857	0.00721952	0.00068921	0.000460972	0	5	0	
0.218333	-0.0230607	-0.0242143	0.000881551	0.000442873	0	5	0	
0.2185	-0.00233097	0.00137677	0.00096343	0.000419295	0	5	0	
0.218667	0.00832115	0.0214506	0.000893815	0.000334242	0	5	0	
0.218833	0.000921736	-0.00144291	0.000656181	0.000404218	0	5	0	
0.219	-0.0165449	-0.0188295	0.000407373	0.000584364	0	5	0	
0.219167	0.0292956	0.0158428	0.000359805	0.000619393	0	5	0	
0.219333	-0.0285917	0.0198289	0.000438524	0.000479254	0	5	0	
0.2195	0.023718	-0.00296526	0.000540603	0.000432062	0	5	0	
0.219667	-0.0215702	-0.00875581	0.000577756	0.000582758	0	5	0	
0.219833	0.0275602	0.000390928	0.000609968	0.000562605	0	5	0	
0.22	-0.031454	0.0262778	0.00064904	0.000436078	0	5	0	
0.220167	0.0203617	-0.0313459	0.000632108	0.000374898	0	5	0	
0.220333	-0.0122694	0.0348049	0.000628584	0.000569108	0	5	0	
0.2205	0.0156578	-0.0114281	0.000579522	0.000695644	0	5	0	
0.220667	-0.0203592	0.0221042	0.000532332	0.000598535	0	5	0	
0.220833	0.0206707	-0.0194273	0.000492186	0.000445642	0	5	0	
0.221	-0.0217242	-0.00260592	0.000468991	0.000359911	0	5	0	
0.221167	0.0282586	0.00977219	0.000473559	0.000303034	0	5	0	
0.221333	-0.0326377	0.00294757	0.000514154	0.000257645	0	5	0	
0.2215	0.0287358	0.000800051	0.000585817	0.000143942	0	5	0	
0.221667	-0.0269355	-0.0225007	0.000625992	0.000196004	0	5	0	
0.221833	0.0303645	0.0213089	0.000618035	0.000238283	0	5	0	
0.222	-0.0225266	0.00709536	0.000608235	0.000494507	0	5	0	
0.222167	0.00414568	-0.0238387	0.000646498	0.000687984	0	5	0	
0.222333	0.00828939	0.0139868	0.000552462	0.000678407	0	5	0	
0.2225	0.00899434	0.0149695	0.000457748	0.000534591	0	5	0	
0.222667	-0.0212645	-0.0573455	0.000374106	0.000550703	0	5	0	
0.222833	0.0156796	0.0781899	0.000386085	0.000833338	0	5	0	
0.223	-0.0256617	-0.0404611	0.000378718	0.00109447	0	5	0	
0.223167	0.0403117	0.0334384	0.000461925	0.00107173	0	5	0	
0.223333	-0.0122821	-0.0440242	0.000653544	0.000998075	0	5	0	
0.2235	-0.0165795	0.0225152	0.000815	0.000849119	0	5	0	
0.223667	0.00895128	-0.0220894	0.00065776	0.000765305	0	5	0	
0.223833	0.00882149	0.00806805	0.000421102	0.000722309	0	5	0	
0.224	-0.0152621	-0.00454202	0.00022357	0.000906383	0	5	0	
0.224167	0.0323949	0.0390188	0.000311554	0.0010832	0	5	0	
0.224333	-0.0565777	-0.0278151	0.000523612	0.00108539	0	5	0	
0.2245	0.03998	-0.00875297	0.000754433	0.000791724	0	5	0	
0.224667	0.0149414	0.00184748	0.00103497	0.000586962	0	5	0	
0.224833	-0.0581029	0.0251492	0.00105278	0.000593922	0	5	0	
0.225	-0.00308666	-0.0539149	0.00102705	0.000694822	0	5	0	
0.225167	0.0834044	0.0352031	0.00116021	0.00083614	0	5	0	
0.225333	-0.0937331	-0.0217368	0.00143642	0.000727092	0	5	0	
0.2255	0.0483734	0.0178606	0.00161161	0.000649938	0	5	0	
0.225667	0.0148944	-0.0102941	0.00144404	0.000449025	0	5	0	
0.225833	-0.0569116	0.0143796	0.00103645	0.000348799	0	5	0	
0.226	0.0697587	-0.0240761	0.00108799	0.000335632	0	5	0	
0.226167	-0.0559814	0.0172429	0.00145158	0.000378362	0	5	0	
0.226333	-0.0128556	-0.0163466	0.00217248	0.000396431	0	5	0	
0.2265	0.0882369	0.00447845	0.00235292	0.000446191	0	5	0	
0.226667	-0.0723941	-0.00972074	0.00201127	0.000484312	0	5	0	
0.226833	-0.0262858	0.0123634	0.00184861	0.000442491	0	5	0	
0.227	0.117662	-0.0225764	0.00185315	0.000384783	0	5	0	
0.227167	-0.079013	0.0287482	0.00203626	0.000343869	0	5	0	
0.227333	-0.0254597	-0.0301781	0.00162862	0.000513425	0	5	0	
0.2275	0.0469614	0.0083654	0.00120842	0.000552965	0	5	0	
0.227667	-0.0268507	-0.000964981	0.000807222	0.000451519	0	5	0	
0.227833	0.0117073	0.0100817	0.000697815	0.000247192	0	5	0	
0.228	0.00162268	-0.0115088	0.000570165	0.000164186	0	5	0	
0.228167	-0.00876881	0.00665334	0.000403257	0.000210976	0	5	0	
0.228333	-0.0108064	-0.0166984	0.000313497	0.0003078	0	5	0	
0.2285	0.0261583	0.0146088	0.000378104	0.000314197	0	5	0	
0.228667	-0.031216	0.0056695	0.000485105	0.000314314	0	5	0	
0.228833	0.0207578	-0.0159131	0.000556165	0.000253008	0	5	0	
0.229	-0.0204219	0.00298498	0.000521661	0.000251515	0	5	0	
0.229167	0.0230228	0.00323621	0.000542361	0.000251263	0	5	0	
0.229333	-0.00539708	0.00566103	0.000573721	0.000221874	0	5	0	
0.2295	-0.0142616	-0.00652227	0.000624797	0.000210081	0	5	0	
0.229667	-0.00152441	0.00169684	0.000489583	0.000200217	0	5	0	
0.229833	0.0355618	0.00155727	0.000451689	0.00022829	0	5	0	
0.23	-0.0561357	0.0129412	0.000524376	0.00041481	0	5	0	
0.230167	0.0533829	-0.0328845	0.000819415	0.000553936	0	5	0	
0.230333	-0.0378416	0.0198838	0.000956035	0.000649144	0	5	0	
0.2305	0.0188803	0.0159185	0.000986177	0.00058747	0	5	0	
0.230667	-0.00883951	-0.022096	0.000949497	0.000474619	0	5	0	
0.230833	0.00374929	0.0010751	0.000817024	0.000553948	0	5	0	
0.231	0.00251624	0.0214997	0.000584498	0.00051246	0	5	0	
0.231167	0.000563181	-0.000646914	0.000296096	0.000629486	0	5	0	
0.231333	-0.0199482	-0.030952	0.000191459	0.000772076	0	5	0	
0.2315	0.0283535	0.0402228	0.000235232	0.000852736	0	5	0	
0.231667	-0.0114507	-0.0134874	0.000446547	0.000810808	0	5	0	
0.231833	0.00379505	0.0155371	0.000550596	0.000586953	0	5	0	
0.232	-0.0237842	-0.0306902	0.000518581	0.000527391	0	5	0	
0.232167	0.0385593	0.00266851	0.000499673	0.00051372	0	5	0	
0.232333	-0.025461	0.0402424	0.00058028	0.000580871	0	5	0	
0.2325	0.0110208	-0.0247017	0.000683706	0.000580397	0	5	0	
0.232667	-0.0198939	-0.00413474	0.000599254	0.000658283	0	5	0	
0.232833	0.0372048	0.00949323	0.000520094	0.000529979	0	5	0	
0.233	-0.0354014	-0.00605815	0.000548009	0.000391764	0	5	0	
0.233167	0.0184806	0.00744115	0.000673531	0.000185804	0	5	0	
0.233333	-0.00992227	-0.00102743	0.000691014	0.000148422	0	5	0	
0.2335	0.013471	-0.0160015	0.000572183	0.000250762	0	5	0	
0.233667	-0.0211986	0.0253359	0.000452094	0.000371999	0	5	0	
0.233833	0.022865	-0.0273307	0.000414872	0.000471185	0	5	0	
0.234	-0.0172289	0.0166158	0.000437866	0.000464656	0	5	0	
0.234167	0.0179697	0.0167234	0.000438391	0.000558492	0	5	0	
0.234333	-0.0221569	-0.0565328	0.000418688	0.000664739	0	5	0	
0.2345	0.0189096	0.040251	0.000419233	0.000810209	0	5	0	
0.234667	-0.0162881	-0.0055183	0.000442579	0.000867921	0	5	0	
0.234833	0.0180746	-0.00285979	0.00044762	0.0007358	0	5	0	
0.235	-0.0168004	-0.0125368	0.000443707	0.000493133	0	5	0	
0.235167	0.0141885	-0.000737272	0.00044228	0.00028402	0	5	0	
0.235333	-0.012281	0.0177312	0.000436639	0.00027058	0	5	0	
0.2355	0.0146321	-0.0158096	0.000428987	0.000366959	0	5	0	
0.235667	-0.0181054	-0.00814459	0.000431362	0.000456206	0	5	0	
0.235833	0.0174182	0.00262187	0.000451685	0.00037377	0	5	0	
0.236	-0.016113	0.0103446	0.000471336	0.000322631	0	5	0	
0.236167	0.0201069	-0.00551297	0.00046235	0.000205784	0	5	0	
0.236333	-0.0229038	-0.00271137	0.000446693	0.000195294	0	5	0	
0.2365	0.0180164	0.006538	0.00044292	0.000153868	0	5	0	
0.236667	-0.0138428	-0.0128652	0.000421468	0.000147449	0	5	0	
0.236833	0.0260936	0.0141779	0.000399955	0.000202767	0	5	0	
0.237	-0.0377142	-0.00801047	0.000455644	0.000298929	0	5	0	
0.237167	0.0268604	-0.00219197	0.000619981	0.00036944	0	5	0	
0.237333	-0.00314176	0.00199365	0.000699659	0.000294729	0	5	0	
0.2375	0.00567612	0.00757964	0.000565638	0.00020347	0	5	0	
0.237667	-0.00939051	-0.00787247	0.000350757	0.00011687	0	5	0	
0.237833	0.00412696	0.00318157	0.000256361	0.000137693	0	5	0	
0.238	-0.00932891	-0.011576	0.000252505	0.000146095	0	5	0	
0.238167	0.0297574	0.0158348	0.000312772	0.000173618	0	5	0	
0.238333	-0.0308838	-0.00703349	0.000384178	0.000241938	0	5	0	
0.2385	0.0174516	-0.00289741	0.000554736	0.000285473	0	5	0	
0.238667	-0.00284954	-0.00379162	0.000646633	0.000228394	0	5	0	
0.238833	0.00501055	0.0181385	0.000561108	0.000215387	0	5	0	
0.239	-0.0171722	-0.017181	0.000414251	0.000218436	0	5	0	
0.239167	0.0247868	-0.00355581	0.000340662	0.000400957	0	5	0	
0.239333	-0.0273457	0.0191889	0.000425817	0.000469704	0	5	0	
0.2395	0.0260393	-0.00771619	0.000530115	0.00044137	0	5	0	
0.239667	-0.0191993	-0.00415901	0.000580144	0.000308217	0	5	0	
0.239833	0.0108013	-0.0107401	0.000571277	0.000231039	0	5	0	
0.24	-0.0176917	0.0253965	0.000543088	0.000265129	0	5	0	
0.240167	0.0241683	-0.00136952	0.000535682	0.000390428	0	5	0	
0.240333	-0.0223662	-0.0275998	0.000553895	0.000565848	0	5	0	
0.2405	0.0166648	0.0244174	0.000552674	0.0005961	0	5	0	
0.240667	-0.00762926	-0.00509491	0.000513145	0.000537287	0	5	0	
0.240833	0.00388528	-0.00679667	0.00040034	0.000384011	0	5	0	
0.241	-0.0317859	0.0142805	0.000411198	0.000360922	0	5	0	
0.241167	0.0669878	-0.027692	0.000645397	0.000367409	0	5	0	
0.241333	-0.0693727	0.0233721	0.000968753	0.000415746	0	5	0	
0.2415	0.0384124	0.00421782	0.00116536	0.00047578	0	5	0	
0.241667	-0.0142895	-0.0156593	0.00106947	0.000439316	0	5	0	
0.241833	0.00440528	0.00799114	0.00087127	0.000359621	0	5	0	
0.242	0.0100108	0.000250448	0.000672867	0.000300485	0	5	0	
0.242167	-0.017601	-0.00638972	0.000456937	0.000285102	0	5	0	
0.242333	-0.00759992	0.00341104	0.000431733	0.000293122	0	5	0	
0.2425	0.0433948	-0.00155527	0.000483245	0.000261716	0	5	0	
0.242667	-0.0402595	0.0103032	0.000662943	0.000257025	0	5	0	
0.242833	0.00870816	-0.0119896	0.00080798	0.000242521	0	5	0	
0.243	0.00228471	-0.0024833	0.000763424	0.000226913	0	5	0	
0.243167	0.013321	0.0171035	0.000563098	0.000208205	0	5	0	
0.243333	-0.00539424	-0.00524408	0.000287611	0.000297798	0	5	0	
0.2435	-0.0133406	-0.0191351	0.000267653	0.000409834	0	5	0	
0.243667	0.00568729	-0.00100388	0.000275186	0.000486592	0	5	0	
0.243833	0.0240513	0.036323	0.000341833	0.000619578	0	5	0	
0.244	-0.0357649	-0.0224963	0.000366949	0.000593784	0	5	0	
0.244167	0.018492	-0.0170974	0.000534265	0.00073979	0	5	0	
0.244333	-0.00502098	0.0129426	0.000572603	0.000537048	0	5	0	
0.2445	0.00479268	0.0200637	0.000543227	0.000575436	0	5	0	
0.244667	-0.0096908	-0.00206479	0.000581816	0.000395967	0	5	0	
0.244833	0.00131377	-0.0460624	0.000664433	0.000581898	0	5	0	
0.245	-0.0101954	0.0270986	0.00061955	0.000606469	0	5	0	
0.245167	0.00216854	0.0346106	0.000386508	0.000893709	0	5	0	
0.245333	0.00607074	-0.051468	0.000263469	0.000865131	0	5	0	
0.2455	-0.0140448	0.00476486	0.000324988	0.00104255	0	5	0	
0.245667	0.00753222	0.0298923	0.000387285	0.000998663	0	5	0	
0.245833	0.0159746	-0.00748668	0.000351676	0.000885742	0	5	0	
0.246	-0.0344466	-0.048565	0.000425635	0.000653877	0	5	0	
0.246167	0.0446865	0.0104359	0.000502817	0.000614341	0	5	0	
0.246333	-0.0432378	0.0470576	0.000815453	0.000983726	0	5	0	
0.2465	0.016825	-0.0441312	0.00101206	0.00104008	0	5	0	
0.246667	0.00710707	-0.0158716	0.0011828	0.00121936	0	5	0	
0.246833	-0.0181075	0.0367937	0.00104197	0.00103832	0	5	0	
0.247	0.012144	-0.024234	0.000742381	0.000991737	0	5	0	
0.247167	0.0144685	0.0253261	0.000464016	0.000697864	0	5	0	
0.247333	-0.0482955	-0.0453018	0.000461872	0.000592192	0	5	0	
0.2475	0.0447746	0.0341571	0.000588323	0.000697238	0	5	0	
0.247667	-0.0187465	0.00396997	0.000822611	0.000814309	0	5	0	
0.247833	0.00493649	-0.0113314	0.000820281	0.000734043	0	5	0	
0.248	-0.0367859	-0.00913107	0.00074442	0.000514254	0	5	0	
0.248167	0.045348	0.0108831	0.000703698	0.000289211	0	5	0	
0.248333	-0.0225671	0.0317888	0.000822275	0.000271759	0	5	0	
0.2485	-0.0543742	-0.0230817	0.00134805	0.000606736	0	5	0	
0.248667	0.0971933	-0.0351905	0.00155106	0.00153744	0	5	0	
0.248833	-0.00525241	0.139687	0.00169076	0.00219337	0	5	0	
0.249	-0.0657418	-0.0354045	0.00136401	0.00250444	0	5	0	
0.249167	0.0238445	-0.140584	0.00124843	0.00277241	0	5	0	
0.249333	-0.00709384	0.160952	0.00107761	0.00290168	0	5	0	
0.2495	0.0531056	0.00567213	0.000913689	0.00346096	0	5	0	
0.249667	-0.0493747	-0.0726008	0.00107333	0.00287691	0	5	0	
0.249833	-0.0143871	0.0492383	0.00142349	0.00250025	0	5	0	
0.25	0.0266174	-0.0134478	0.00137648	0.00162606	0	5	0	
0.250167	0.0360682	0.0166353	0.0011655	0.00117577	0	5	0	
0.250333	-0.0430541	0.0590182	0.000732254	0.00142481	0	5	0	
0.2505	0.00289269	-0.126404	0.000915069	0.00188665	0	5	0	
0.250667	-0.00994806	0.0974274	0.000823648	0.00230581	0	5	0	
0.250833	0.0120936	0.0509603	0.000683963	0.00257519	0	5	0	
0.251	0.0410004	-0.131139	0.00050852	0.00238189	0	5	0	
0.251167	-0.113645	0.0167108	0.000709025	0.00263484	0	5	0	
0.251333	0.162919	0.122546	0.00209881	0.0032252	0	5	0	
0.2515	-0.0650014	-0.0597587	0.0045266	0.00298245	0	5	0	
0.251667	-0.064996	-0.11258	0.00643874	0.00343829	0	5	0	
0.251833	0.0937675	0.242168	0.00621302	0.00273799	0	5	0	
0.252	-0.0935583	-0.0661075	0.00431959	0.00379795	0	5	0	
0.252167	0.0526743	-0.0399037	0.00242204	0.00355165	0	5	0	
0.252333	0.155173	0.01426	0.00212822	0.0028218	0	5	0	
0.2525	-0.333408	0.00547247	0.00318277	0.00177427	0	5	0	
0.252667	0.280913	0.0181103	0.00473193	0.00143484	0	5	0	
0.252833	-0.12849	0.110865	0.00502809	0.00217665	0	5	0	
0.253	0.0574868	-0.0906797	0.0039461	0.00266689	0	5	0	
0.253167	-0.0430766	0.0694597	0.00230604	0.00226342	0	5	0	
0.253333	0.0541272	-0.0415124	0.00131885	0.00153394	0	5	0	
0.2535	-0.0597589	-0.0255079	0.000992063	0.00104475	0	5	0	
0.253667	0.0441739	0.125406	0.00103442	0.00152328	0	5	0	
0.253833	0.0192846	-0.0868427	0.000937843	0.00190903	0	5	0	
0.254	-0.031989	-0.0349593	0.000711736	0.00233783	0	5	0	
0.254167	-0.00978559	0.0943331	0.000768894	0.00186291	0	5	0	
0.254333	0.0244308	-0.00191967	0.000904801	0.0016106	0	5	0	
0.2545	0.0506024	0.0221306	0.000918544	0.000876752	0	5	0	
0.254667	-0.0630698	-0.059572	0.000921806	0.00071801	0	5	0	
0.254833	0.00646401	0.0647609	0.00109004	0.000824665	0	5	0	
0.255	0.00324863	0.00283715	0.00114032	0.000974163	0	5	0	
0.255167	0.0254357	0.000400267	0.000843089	0.00080136	0	5	0	
0.255333	-0.0204719	0.0100273	0.000480063	0.000566599	0	5	0	
0.2555	0.0041556	0.00905823	0.00051316	0.000531096	0	5	0	
0.255667	-0.0102482	-0.0481438	0.000491143	0.000744414	0	5	0	
0.255833	0.0113458	0.0521757	0.000474752	0.000824947	0	5	0	
0.256	-0.000484619	0.0373522	0.000617335	0.00104532	0	5	0	
0.256167	-0.034044	-0.0551214	0.000910162	0.00112885	0	5	0	
0.256333	0.0317431	-0.0149229	0.00104232	0.00115753	0	5	0	
0.2565	-0.00671926	0.0448198	0.000802979	0.00094928	0	5	0	
0.256667	0.00576434	0.00240569	0.000521037	0.00092787	0	5	0	
0.256833	-0.000498346	-0.0265091	0.000349405	0.000827059	0	5	0	
0.257	-0.0209886	-0.00474296	0.000276372	0.000764443	0	5	0	
0.257167	0.0317605	0.0437315	0.000314999	0.00058135	0	5	0	
0.257333	-0.01312	-0.0172721	0.000560873	0.000608396	0	5	0	
0.2575	-0.00210557	-0.00284154	0.000698369	0.000627534	0	5	0	
0.257667	-0.0133458	0.0338891	0.000564709	0.000813808	0	5	0	
0.257833	0.0214052	-0.0698328	0.000465634	0.000894938	0	5	0	
0.258	0.00344708	0.0307934	0.000711503	0.0012011	0	5	0	
0.258167	0.00255653	0.0789523	0.000974673	0.00173941	0	5	0	
0.258333	-0.0222203	-0.0760836	0.000844334	0.00188558	0	5	0	
0.2585	0.0367673	-0.0190423	0.000602516	0.0017863	0	5	0	
0.258667	-0.033273	0.0316763	0.000581929	0.00109949	0	5	0	
0.258833	0.0604388	0.017739	0.000831401	0.000756581	0	5	0	
0.259	-0.059085	-0.00888896	0.000996094	0.000642691	0	5	0	
0.259167	0.0537452	-0.043881	0.00111474	0.00105753	0	5	0	
0.259333	-0.0270318	0.0592255	0.00111548	0.00119528	0	5	0	
0.2595	-0.0198674	-0.0102317	0.00108729	0.00129722	0	5	0	
0.259667	0.0296145	-0.0517763	0.00095096	0.000919885	0	5	0	
0.259833	-0.0288198	0.0467634	0.000785224	0.000981612	0	5	0	
0.26	0.0329773	-0.0274576	0.000811563	0.000890899	0	5	0	
0.260167	-0.0043202	0.0378441	0.000904404	0.000948729	0	5	0	
0.260333	-0.0256461	-0.0832085	0.000991969	0.00107157	0	5	0	
0.2605	0.0192503	0.0368804	0.000768508	0.00130096	0	5	0	
0.260667	-0.0237098	0.0596074	0.000649236	0.00171674	0	5	0	
0.260833	0.00896585	-0.0805993	0.000741325	0.00164978	0	5	0	
0.261	0.00953168	-0.0462663	0.00104021	0.00184685	0	5	0	
0.261167	-0.0418687	0.113927	0.00127525	0.00176016	0	5	0	
0.261333	0.0201305	-0.0820504	0.0012792	0.0019668	0	5	0	
0.2615	0.02024	0.0113705	0.00102685	0.00160928	0	5	0	
0.261667	-0.00671901	-0.00575014	0.000960296	0.00106645	0	5	0	
0.261833	-0.0231545	0.0235537	0.00112756	0.00053965	0	5	0	
0.262	-0.004381	-0.0307922	0.00107072	0.000386682	0	5	0	
0.262167	0.0485443	-0.0100505	0.00089691	0.000397921	0	5	0	
0.262333	-0.0494489	0.0100036	0.000695804	0.000446653	0	5	0	
0.2625	-0.00572062	0.021827	0.000974548	0.000337568	0	5	0	
0.262667	0.0168196	-0.0488598	0.000841393	0.000446073	0	5	0	
0.262833	0.00386834	0.0303113	0.000787873	0.000685071	0	5	0	
0.263	-0.0253516	0.0427662	0.000694537	0.00117842	0	5	0	
0.263167	0.062081	-0.0650768	0.000969218	0.00167751	0	5	0	
0.263333	-0.0824346	0.0486256	0.00112308	0.00186414	0	5	0	
0.2635	0.047451	-0.067771	0.00127252	0.00152008	0	5	0	
0.263667	0.0645945	0.0068462	0.00168653	0.00120109	0	5	0	
0.263833	-0.164598	0.0828856	0.00217582	0.000961558	0	5	0	
0.264	0.155645	-0.107736	0.00274507	0.00119825	0	5	0	
0.264167	-0.0537701	0.106976	0.00261448	0.00179744	0	5	0	
0.264333	-0.0492578	-0.0579092	0.00226256	0.00230579	0	5	0	
0.2645	0.0870043	-0.0172825	0.00162124	0.0023269	0	5	0	
0.264667	-0.0594785	0.0329354	0.00148256	0.00170616	0	5	0	
0.264833	0.0531248	0.020087	0.00160068	0.00106465	0	5	0	
0.265	-0.0461035	-0.0395969	0.0019205	0.000749093	0	5	0	
0.265167	0.0187339	0.0199834	0.00210114	0.000665645	0	5	0	
0.265333	0.0114208	0.0381296	0.00182827	0.00101732	0	5	0	
0.2655	-0.00584809	-0.0635285	0.00120968	0.00115768	0	5	0	
0.265667	-0.0413471	0.0224755	0.000755812	0.00118589	0	5	0	
0.265833	0.0493917	0.052948	0.00064782	0.000817994	0	5	0	
0.266	-0.000500251	-0.0492781	0.000703513	0.000864824	0	5	0	
0.266167	-0.00484953	0.0344932	0.000497924	0.000953263	0	5	0	
0.266333	-0.00338197	-0.0557553	0.000247166	0.00117269	0	5	0	
0.2665	0.00550025	0.0580418	0.0001446	0.00122808	0	5	0	
0.266667	0.00144106	-0.0280641	0.000199165	0.00130014	0	5	0	
0.266833	0.0119827	-0.0180842	0.000207389	0.00121061	0	5	0	
0.267	-0.0185195	-0.00531879	0.00028868	0.000808888	0	5	0	
0.267167	0.00109082	0.0425772	0.000318301	0.000521932	0	5	0	
0.267333	-0.0025752	-0.00938772	0.000275761	0.000444733	0	5	0	
0.2675	0.0227886	-0.0224179	0.000188753	0.000916084	0	5	0	
0.267667	-0.0420925	0.0236695	0.000317604	0.00103369	0	5	0	
0.267833	0.0334568	-0.00821845	0.000615368	0.00107236	0	5	0	
0.268	-0.0116402	-0.0380346	0.000994731	0.00070557	0	5	0	
0.268167	-0.0109084	0.0168146	0.00132929	0.000755323	0	5	0	
0.268333	0.0295303	0.0287565	0.00154454	0.00075785	0	5	0	
0.2685	-0.0279034	0.0525131	0.0013883	0.000951009	0	5	0	
0.268667	-0.00819937	-0.103527	0.000942849	0.00119999	0	5	0	
0.268833	0.0215748	0.0520869	0.000614921	0.00140193	0	5	0	
0.269	-0.0185869	0.0179413	0.000452883	0.00153357	0	5	0	
0.269167	0.00287088	0.0125001	0.000720049	0.00102104	0	5	0	
0.269333	0.0365595	-0.073202	0.00102432	0.000956126	0	5	0	
0.2695	-0.0543874	0.0727366	0.00133798	0.000919629	0	5	0	
0.269667	0.0186375	-0.00475201	0.00114491	0.00132399	0	5	0	
0.269833	0.0332475	0.0191304	0.000841419	0.00111	0	5	0	
0.27	-0.0483562	-0.0331583	0.000665234	0.000951355	0	5	0	
0.270167	0.0162077	0.0308194	0.000918038	0.000688204	0	5	0	
0.270333	0.00620022	-0.00137632	0.00120699	0.000641131	0	5	0	
0.2705	0.00129476	0.0431174	0.00129363	0.000701956	0	5	0	
0.270667	-0.00481706	-0.0704176	0.00112991	0.00110788	0	5	0	
0.270833	-0.0106261	0.0657205	0.000889619	0.00141339	0	5	0	
0.271	-0.00201151	0.00195924	0.000670159	0.00128052	0	5	0	
0.271167	0.0186112	-0.015222	0.000498439	0.000728581	0	5	0	
0.271333	-0.0092026	-0.0174739	0.000555324	0.00064613	0	5	0	
0.2715	-0.0126558	0.0342171	0.000900539	0.000670236	0	5	0	
0.271667	0.0268789	-0.00420431	0.00118268	0.000727493	0	5	0	
0.271833	-0.0137338	0.00935908	0.00114691	0.000458575	0	5	0	
0.272	-0.00178708	-0.0344292	0.000778903	0.000399122	0	5	0	
0.272167	0.0221735	0.0279742	0.000457696	0.000454645	0	5	0	
0.272333	-0.0351108	-0.00753895	0.000372172	0.0005792	0	5	0	
0.2725	0.032147	0.00179644	0.00050737	0.000569346	0	5	0	
0.272667	-0.0102119	-0.0373726	0.00057818	0.000589207	0	5	0	
0.272833	0.00662389	0.0231258	0.000526165	0.000555963	0	5	0	
0.273	-0.00837403	-0.0134549	0.000466115	0.00056902	0	5	0	
0.273167	0.00351084	-0.00763404	0.000499647	0.000432286	0	5	0	
0.273333	-0.00651412	-0.0263232	0.000507568	0.000460267	0	5	0	
0.2735	0.00708585	0.0480504	0.000420643	0.000571805	0	5	0	
0.273667	-0.00976241	-0.054346	0.00033594	0.000886047	0	5	0	
0.273833	0.0121636	0.00531999	0.000320026	0.00082705	0	5	0	
0.274	-0.0277372	-0.00686594	0.000421641	0.000648519	0	5	0	
0.274167	0.0310473	-0.0168549	0.000572577	0.000376954	0	5	0	
0.274333	-0.0228806	0.0137957	0.000726158	0.000321783	0	5	0	
0.2745	0.00630835	0.00157326	0.000754897	0.000298415	0	5	0	
0.274667	-0.00894426	-0.0229924	0.00065177	0.000255836	0	5	0	
0.274833	0.0041272	0.0140019	0.000517146	0.000332973	0	5	0	
0.275	-0.00131309	-0.00417007	0.000409071	0.00044465	0	5	0	
0.275167	0.0208688	-0.00346447	0.000355765	0.000491499	0	5	0	
0.275333	-0.0315796	0.00262103	0.000347669	0.000410163	0	5	0	
0.2755	0.0216295	-0.00542487	0.000478099	0.000286237	0	5	0	
0.275667	0.000166196	-0.00214282	0.000732037	0.000181962	0	5	0	
0.275833	-0.00173681	0.0234787	0.000841411	0.000179488	0	5	0	
0.276	-0.00462674	-0.0257338	0.000664368	0.000259067	0	5	0	
0.276167	0.0188878	-0.00103519	0.000411554	0.000503577	0	5	0	
0.276333	-0.0234831	0.0171551	0.000257525	0.000662202	0	5	0	
0.2765	0.027363	-0.0107297	0.0004029	0.00060849	0	5	0	
0.276667	-0.0124825	-0.0126874	0.000518152	0.000391928	0	5	0	
0.276833	0.0148912	0.0235627	0.00057893	0.000281321	0	5	0	
0.277	-0.0228443	-0.0118911	0.000548334	0.000416373	0	5	0	
0.277167	0.0198124	-0.0296905	0.00061761	0.000664343	0	5	0	
0.277333	-0.00562082	0.0397946	0.000844282	0.000839195	0	5	0	
0.2775	0.00107394	-0.0542152	0.000915191	0.000875728	0	5	0	
0.277667	-0.0097616	0.0165247	0.000694483	0.000816034	0	5	0	
0.277833	0.0175083	0.00829151	0.000441014	0.00069275	0	5	0	
0.278	-0.0245156	-0.0327742	0.000334176	0.000577601	0	5	0	
0.278167	0.0285575	0.0150766	0.000433376	0.000516736	0	5	0	
0.278333	-0.0199442	0.00926465	0.000457769	0.0007811	0	5	0	
0.2785	-0.00509814	-0.054555	0.00041106	0.00107596	0	5	0	
0.278667	0.0189693	0.00602845	0.000379584	0.00125306	0	5	0	
0.278833	-0.0210369	0.0101479	0.00040071	0.000893783	0	5	0	
0.279	0.00515843	-0.0132268	0.000421048	0.000623961	0	5	0	
0.279167	-0.0178441	-0.00559166	0.00039101	0.000649926	0	5	0	
0.279333	0.0182094	-0.0266386	0.00036781	0.000772292	0	5	0	
0.2795	-0.0140513	0.0416463	0.000401029	0.000844003	0	5	0	
0.279667	0.00580054	-0.0287986	0.000526454	0.000873347	0	5	0	
0.279833	-0.00781447	-0.0715478	0.000681779	0.00124145	0	5	0	
0.28	-0.0126071	0.0581671	0.000744611	0.0013709	0	5	0	
0.280167	0.0231976	0.0514655	0.000708233	0.00168396	0	5	0	
0.280333	-0.00241544	-0.0728548	0.000695471	0.00155995	0	5	0	
0.2805	-0.0294917	0.017171	0.000853686	0.0014752	0	5	0	
0.280667	0.0310078	-0.039503	0.000915838	0.000949355	0	5	0	
0.280833	0.00542277	0.0639748	0.000692668	0.000776652	0	5	0	
0.281	-0.0503173	-0.00235842	0.000554674	0.00111319	0	5	0	
0.281167	0.0616623	-0.0822567	0.000672885	0.00173254	0	5	0	
0.281333	-0.00593881	0.0675202	0.000837835	0.0019306	0	5	0	
0.2815	-0.00490741	-0.000440454	0.000799744	0.00149414	0	5	0	
0.281667	-0.0311154	-0.015758	0.000520709	0.000790752	0	5	0	
0.281833	0.0490735	0.0206214	0.00062608	0.000445389	0	5	0	
0.282	-0.00169883	-0.0360537	0.000899587	0.000468344	0	5	0	
0.282167	-0.0245718	0.0584513	0.00108004	0.000674632	0	5	0	
0.282333	0.0195698	-0.046699	0.000919015	0.000918475	0	5	0	
0.2825	0.0114448	0.0136758	0.000535654	0.00107903	0	5	0	
0.282667	-0.0161627	-0.00824736	0.000410713	0.000908677	0	5	0	
0.282833	0.0227869	0.0116759	0.000422263	0.000622376	0	5	0	
0.283	-0.024429	0.0523736	0.000500337	0.000578825	0	5	0	
0.283167	0.0282713	-0.0955609	0.000557455	0.000914304	0	5	0	
0.283333	-0.0170781	0.0491277	0.000600372	0.0013372	0	5	0	
0.2835	0.00705589	0.0300673	0.000726572	0.00157981	0	5	0	
0.283667	-0.00313392	-0.0351742	0.000741169	0.00132593	0	5	0	
0.283833	0.0113873	0.00694659	0.000638646	0.00105652	0	5	0	
0.284	-0.0168488	0.0104756	0.000500757	0.000698736	0	5	0	
0.284167	0.0130458	-0.0010208	0.000525359	0.000649068	0	5	0	
0.284333	0.0125611	0.00430424	0.000685398	0.00061869	0	5	0	
0.2845	-0.0180475	-0.0241672	0.000749798	0.000634605	0	5	0	
0.284667	-0.00201224	0.0364115	0.00056473	0.000651999	0	5	0	
0.284833	0.0263281	-0.0143195	0.00036259	0.000616356	0	5	0	
0.285	-0.0269988	-0.005043	0.000341546	0.000521455	0	5	0	
0.285167	0.0179787	-0.00345589	0.000531764	0.00040179	0	5	0	
0.285333	-0.00817428	0.027373	0.00064706	0.000357152	0	5	0	
0.2855	0.0113639	-0.0210975	0.000665333	0.000365475	0	5	0	
0.285667	-0.0104322	-0.00385567	0.000679273	0.000573	0	5	0	
0.285833	0.000530997	0.0166423	0.000754681	0.000553947	0	5	0	
0.286	0.0064923	0.00289251	0.000758416	0.000587705	0	5	0	
0.286167	-0.00129123	-0.0144517	0.000578868	0.000514424	0	5	0	
0.286333	-0.0136289	-0.000878736	0.000340909	0.000432775	0	5	0	
0.2865	0.0251858	0.00646018	0.000251579	0.000267406	0	5	0	
0.286667	-0.0180768	0.0268012	0.000390841	0.000263132	0	5	0	
0.286833	0.00234791	-0.0380423	0.000634398	0.00042458	0	5	0	
0.287	-0.00647938	-0.00457813	0.000689698	0.000694675	0	5	0	
0.287167	0.0199638	0.0368307	0.000595532	0.00076186	0	5	0	
0.287333	-0.0133232	-0.016914	0.000529298	0.000721639	0	5	0	
0.2875	-0.00723522	-0.0143702	0.000624559	0.000583772	0	5	0	
0.287667	-0.000383681	0.00888966	0.000613117	0.000383947	0	5	0	
0.287833	0.0233034	0.00482365	0.000483914	0.000292663	0	5	0	
0.288	-0.0234068	0.00499523	0.000424451	0.00022064	0	5	0	
0.288167	0.00434845	-0.023114	0.000566166	0.00028086	0	5	0	
0.288333	-0.00343819	0.0152439	0.0006311	0.000329463	0	5	0	
0.2885	0.0175781	0.0051618	0.000527685	0.000359441	0	5	0	
0.288667	-0.0182987	-0.0077942	0.00045062	0.000270647	0	5	0	
0.288833	0.00917172	-0.00393895	0.00053134	0.000257047	0	5	0	
0.289	-0.00841588	0.00826762	0.000625247	0.000195408	0	5	0	
0.289167	0.0051805	-0.00662119	0.000658038	0.000208622	0	5	0	
0.289333	0.0210766	0.00624853	0.000754646	0.000206938	0	5	0	
0.2895	-0.0384111	0.009892	0.000853278	0.000404737	0	5	0	
0.289667	0.00920254	-0.0555089	0.000769469	0.000675594	0	5	0	
0.289833	0.0335419	0.0574774	0.000599868	0.000908509	0	5	0	
0.29	-0.0364851	0.00503914	0.000515575	0.00115631	0	5	0	
0.290167	0.0183834	-0.0515235	0.00066718	0.00124444	0	5	0	
0.290333	-0.0162613	0.0421124	0.000783526	0.00121934	0	5	0	
0.2905	0.0157933	-0.0396394	0.000897323	0.000982393	0	5	0	
0.290667	-0.000390165	-0.000917032	0.000955242	0.000824646	0	5	0	
0.290833	-0.0092396	0.012777	0.000856867	0.000645032	0	5	0	
0.291	-0.000262918	-0.0212227	0.00055886	0.000444931	0	5	0	
0.291167	0.0108951	0.0201114	0.000264919	0.000394533	0	5	0	
0.291333	-0.0141358	-0.0120468	0.000226496	0.000477589	0	5	0	
0.2915	0.00508217	0.0199156	0.000372647	0.000578578	0	5	0	
0.291667	0.00746853	-0.0546458	0.000459429	0.000658981	0	5	0	
0.291833	-0.00241808	0.0439394	0.000344667	0.000815208	0	5	0	
0.292	-0.0180804	-0.0370883	0.000213041	0.000855794	0	5	0	
0.292167	0.0245446	0.011767	0.000239023	0.000845212	0	5	0	
0.292333	-0.00163672	0.0199927	0.000427101	0.00068286	0	5	0	
0.2925	-0.00449149	0.000424328	0.000504658	0.000576798	0	5	0	
0.292667	-0.016375	-0.0396401	0.000433638	0.000466389	0	5	0	
0.292833	0.0358932	-0.00110784	0.000400115	0.000444735	0	5	0	
0.293	-0.0383041	0.0392241	0.00049415	0.000737053	0	5	0	
0.293167	0.019397	-0.0408479	0.000684855	0.000806026	0	5	0	
0.293333	0.0164716	0.00587615	0.000812765	0.000827624	0	5	0	
0.2935	-0.0261407	0.0306927	0.000802752	0.000637263	0	5	0	
0.293667	0.00613737	-0.0422727	0.000609853	0.000586378	0	5	0	
0.293833	0.00580034	-0.00557041	0.000339403	0.000692523	0	5	0	
0.294	0.0208772	0.0523343	0.000340771	0.000991221	0	5	0	
0.294167	-0.036247	-0.0359212	0.000428731	0.000996374	0	5	0	
0.294333	-0.0159541	-0.0707603	0.000717321	0.0012395	0	5	0	
0.2945	0.0641827	0.0810024	0.0008017	0.00129883	0	5	0	
0.294667	-0.0351716	0.0819029	0.000978776	0.00242132	0	5	0	
0.294833	-0.00642523	-0.13747	0.0010031	0.00267314	0	5	0	
0.295	-0.00277973	0.00984768	0.00082098	0.00281167	0	5	0	
0.295167	0.0141682	0.0602045	0.000639734	0.00194917	0	5	0	
0.295333	0.0162211	-0.00274299	0.000675002	0.00163677	0	5	0	
0.2955	-0.039601	-0.00847147	0.000837926	0.00120443	0	5	0	
0.295667	0.0156668	-0.0657381	0.000854423	0.00112437	0	5	0	
0.295833	0.0205279	0.0831256	0.000681819	0.00106781	0	5	0	
0.296	-0.0225333	0.0205938	0.00054397	0.00165218	0	5	0	
0.296167	0.000594482	-0.0803071	0.000644371	0.00185787	0	5	0	
0.296333	0.00828127	0.0103544	0.000600183	0.0018043	0	5	0	
0.2965	0.0109179	0.066917	0.000505062	0.00145785	0	5	0	
0.296667	-0.0231803	-0.0335856	0.000348011	0.00121722	0	5	0	
0.296833	0.0118311	-0.0500314	0.000441592	0.00140446	0	5	0	
0.297	0.00653194	0.0431943	0.000727926	0.00114543	0	5	0	
0.297167	-0.0138221	0.0289005	0.000851806	0.00131294	0	5	0	
0.297333	0.00813384	-0.0484361	0.000744238	0.00100209	0	5	0	
0.2975	0.00445824	-0.00433351	0.000514831	0.0010929	0	5	0	
0.297667	-0.0122784	0.0460638	0.000380036	0.000918311	0	5	0	
0.297833	0.0149573	-0.040577	0.000371652	0.000916484	0	5	0	
0.298	-0.0123184	0.0122865	0.000446887	0.000773415	0	5	0	
0.298167	0.00888199	0.000659687	0.000515193	0.00056026	0	5	0	
0.298333	-0.0101377	-0.0008743	0.000524554	0.000324735	0	5	0	
0.2985	0.0140988	-0.00753977	0.000502057	0.000270692	0	5	0	
0.298667	-0.0141746	0.0179887	0.000501317	0.000335433	0	5	0	
0.298833	0.00573348	-0.0156217	0.000543124	0.00044686	0	5	0	
0.299	0.00143109	0.000896944	0.000584332	0.000347126	0	5	0	
0.299167	-0.000725126	0.0115515	0.000538541	0.0001919	0	5	0	
0.299333	-0.00895587	-0.00834727	0.000428528	0.000212054	0	5	0	
0.2995	0.0144975	-0.00494129	0.000384963	0.000392483	0	5	0	
0.299667	-0.00477383	0.00584815	0.000476397	0.000493132	0	5	0	
0.299833	-0.000489496	0.0044014	0.000581417	0.000373391	0	5	0	
0.3	-0.00815744	-0.00403071	0.000544942	0.000230696	0	5	0	
0.300167	0.00760088	-0.00660776	0.000473951	0.000267027	0	5	0	
0.300333	0.000738232	0.00854005	0.000504391	0.000329482	0	5	0	
0.3005	0.00261436	0.00584801	0.00054341	0.000308257	0	5	0	
0.300667	-0.0102527	-0.0213639	0.000501048	0.000252975	0	5	0	
0.300833	-0.00327522	0.0150422	0.000499415	0.000272039	0	5	0	
0.301	0.0317774	0.00313097	0.000599762	0.000374425	0	5	0	
0.301167	-0.0366176	-0.0175124	0.000672294	0.000413392	0	5	0	
0.301333	0.00166399	0.0262258	0.000883074	0.000422253	0	5	0	
0.3015	0.0305278	-0.0242339	0.00105729	0.000461671	0	5	0	
0.301667	-0.0321718	0.0316161	0.00102565	0.000561873	0	5	0	
0.301833	0.00529661	-0.00987217	0.000884638	0.00070424	0	5	0	
0.302	0.0230289	-0.00505025	0.000822307	0.000585195	0	5	0	
0.302167	-0.0460081	-0.00227745	0.000996649	0.000395151	0	5	0	
0.302333	0.0555196	-0.00699231	0.0010521	0.000213698	0	5	0	
0.3025	-0.0443839	-0.00697891	0.00101229	0.00031049	0	5	0	
0.302667	0.0147053	0.0303901	0.00088502	0.000517291	0	5	0	
0.302833	-0.00198988	-0.0126419	0.000669747	0.000746267	0	5	0	
0.303	0.00569362	-0.0190565	0.000567824	0.000732558	0	5	0	
0.303167	-0.0164538	0.0141977	0.000614432	0.00053333	0	5	0	
0.303333	0.0177106	-0.00496871	0.000656344	0.000379907	0	5	0	
0.3035	-0.00827879	-0.0141612	0.000501386	0.000295214	0	5	0	
0.303667	-0.0106309	0.000871853	0.000285261	0.000327342	0	5	0	
0.303833	0.0181316	0.0138014	0.00024456	0.000296375	0	5	0	
0.304	-0.00942734	-0.0130228	0.000416256	0.00029772	0	5	0	
0.304167	-0.000285243	0.0017064	0.000609275	0.000271373	0	5	0	
0.304333	-0.00145722	0.00638571	0.000619024	0.000159511	0	5	0	
0.3045	0.00350997	0.00157075	0.000509265	0.000148753	0	5	0	
0.304667	-0.0017935	-0.0110738	0.000452573	0.000149266	0	5	0	
0.304833	0.00142049	0.00494975	0.000466176	0.000197429	0	5	0	
0.305	-0.00337063	0.0128759	0.000470507	0.00027657	0	5	0	
0.305167	-0.00369897	-0.0192755	0.000496991	0.000301102	0	5	0	
0.305333	0.0182048	-0.00282143	0.000585144	0.000406276	0	5	0	
0.3055	-0.0145575	0.0354242	0.000594481	0.00047303	0	5	0	
0.305667	-0.015607	-0.0340372	0.000461702	0.000585285	0	5	0	
0.305833	0.0313264	-0.00487484	0.000359312	0.00079854	0	5	0	
0.306	-0.012715	0.0318189	0.000509875	0.000859405	0	5	0	
0.306167	-0.00420032	0.0163723	0.000771903	0.000884188	0	5	0	
0.306333	-0.00466326	-0.0805113	0.00082298	0.000783075	0	5	0	
0.3065	0.00940801	0.0276543	0.000706246	0.00117832	0	5	0	
0.306667	-0.00144102	0.066289	0.000558952	0.00200799	0	5	0	
0.306833	0.00806621	-0.066686	0.000419472	0.00218398	0	5	0	
0.307	-0.0299418	-0.0364547	0.000374549	0.00183572	0	5	0	
0.307167	0.0282036	0.0398151	0.000369246	0.00110742	0	5	0	
0.307333	-0.000917284	0.0338575	0.00058182	0.00114521	0	5	0	
0.3075	-0.0150116	0.0168003	0.000661173	0.0010897	0	5	0	
0.307667	0.00763251	-0.137281	0.000570399	0.00138043	0	5	0	
0.307833	0.000150568	0.0914636	0.000334169	0.00157649	0	5	0	
0.308	0.00332018	0.00875612	0.000211184	0.00229194	0	5	0	
0.308167	-0.0116094	-0.0247852	0.000262426	0.00199166	0	5	0	
0.308333	0.0092247	-0.0393053	0.000374702	0.00172879	0	5	0	
0.3085	-0.00177956	0.0672639	0.000413446	0.00103615	0	5	0	
0.308667	-0.00444352	-0.00758346	0.000400651	0.00121209	0	5	0	
0.308833	0.00963204	-0.0394723	0.000388324	0.00115435	0	5	0	
0.309	-0.011368	0.00340341	0.000433465	0.00103451	0	5	0	
0.309167	0.0035336	0.0395577	0.000538913	0.000792419	0	5	0	
0.309333	0.00293717	-0.0257376	0.000641448	0.000629591	0	5	0	
0.3095	-0.00270256	-0.0141389	0.000643581	0.000749243	0	5	0	
0.309667	-0.00279226	0.0202899	0.000545539	0.000611727	0	5	0	
0.309833	0.00436043	0.00126986	0.000444029	0.000529384	0	5	0	
0.31	-0.00487555	-0.0130195	0.000417059	0.000307065	0	5	0	
0.310167	0.00607872	0.00236768	0.000451267	0.000298633	0	5	0	
0.310333	-0.00577331	0.00862818	0.000510382	0.000296562	0	5	0	
0.3105	0.00132732	-0.00283197	0.00058441	0.000258255	0	5	0	
0.310667	0.00154725	-0.00510686	0.00064131	0.000171681	0	5	0	
0.310833	-0.000553792	-0.000185316	0.000660488	9.13447E-05	0	5	0	
0.311	0.00359118	-0.00194234	0.000660517	7.73074E-05	0	5	0	
0.311167	-0.00402495	0.0121461	0.000630475	0.000111371	0	5	0	
0.311333	-0.00758262	-0.00757306	0.000546048	0.000141069	0	5	0	
0.3115	0.0150396	-0.0116945	0.000476457	0.000295485	0	5	0	
0.311667	-0.0121656	0.0181874	0.000507338	0.000367311	0	5	0	
0.311833	0.0103538	-0.0061877	0.000616735	0.000365886	0	5	0	
0.312	-0.00958791	-0.00454877	0.00069082	0.000218581	0	5	0	
0.312167	0.00200201	-0.000664995	0.000717895	0.000153942	0	5	0	
0.312333	0.00548545	0.000281605	0.000711572	0.000138752	0	5	0	
0.3125	-0.00193172	0.00651171	0.000627771	0.000156591	0	5	0	
0.312667	-0.00788708	-0.00695468	0.000489465	0.000187934	0	5	0	
0.312833	0.00874438	-0.00255839	0.000418909	0.000261941	0	5	0	
0.313	-0.00460606	2.1318E-05	0.000469026	0.000283073	0	5	0	
0.313167	0.00328453	0.00868871	0.000529422	0.000235508	0	5	0	
0.313333	-0.00431884	-0.0144146	0.000514436	0.000169762	0	5	0	
0.3135	0.0058561	0.00573834	0.000487533	0.000222399	0	5	0	
0.313667	-0.00372573	0.00572733	0.000495834	0.000304312	0	5	0	
0.313833	0.00744868	-0.00638868	0.000499283	0.000298394	0	5	0	
0.314	-0.0118014	-0.0017931	0.000486798	0.000202395	0	5	0	
0.314167	0.00654237	0.00379956	0.000521557	0.000100361	0	5	0	
0.314333	0.00432378	-0.00157683	0.00061015	0.000132932	0	5	0	
0.3145	-0.00465281	-0.00412898	0.000638354	0.000213794	0	5	0	
0.314667	0.00162684	0.00180337	0.000567175	0.000222375	0	5	0	
0.314833	-0.00292103	0.00689573	0.000477635	0.000155673	0	5	0	
0.315	0.0024251	-0.0105376	0.000421066	0.00011255	0	5	0	
0.315167	0.00533339	0.0045164	0.000358465	0.000183228	0	5	0	
0.315333	-0.0127759	0.00115888	0.000322801	0.000254834	0	5	0	
0.3155	0.00997756	-0.00128467	0.000405295	0.00021341	0	5	0	
0.315667	-0.00101544	-0.0104003	0.000565088	0.000140611	0	5	0	
0.315833	-0.00180543	0.00783515	0.000527896	0.000130167	0	5	0	
0.316	-0.028896	0.0033185	0.000444859	0.000248241	0	5	0	
0.316167	0.0402827	-0.0065881	0.000441144	0.000285175	0	5	0	
0.316333	-0.0253407	0.00257278	0.000567249	0.000240731	0	5	0	
0.3165	0.0045848	0.00485789	0.000679352	0.00013799	0	5	0	
0.316667	0.000553039	-0.00611928	0.000607959	0.000153475	0	5	0	
0.316833	-0.00606601	-0.00208741	0.000481472	0.000244566	0	5	0	
0.317	0.01053	0.00211343	0.000336177	0.000284766	0	5	0	
0.317167	-0.0245941	0.00735538	0.000287622	0.000233395	0	5	0	
0.317333	0.0184405	-0.00495825	0.000355522	0.000145506	0	5	0	
0.3175	-0.00280929	-0.00209282	0.0003474	0.000188452	0	5	0	
0.317667	0.000794522	0.00408431	0.000356018	0.000243512	0	5	0	
0.317833	-0.00795006	0.00363192	0.000378708	0.00022304	0	5	0	
0.318	0.00767323	-0.00964401	0.000385558	0.000161916	0	5	0	
0.318167	0.000259499	0.0137218	0.000302116	0.000144786	0	5	0	
0.318333	-0.00962116	-0.0129583	0.000176298	0.000208253	0	5	0	
0.3185	0.0240135	0.00494429	0.000189638	0.000286617	0	5	0	
0.318667	-0.0252011	0.0190302	0.000372674	0.000452977	0	5	0	
0.318833	4.058E-05	-0.0380838	0.000709104	0.000601834	0	5	0	
0.319	0.0245601	0.0277081	0.00095564	0.000656785	0	5	0	
0.319167	-0.0186172	-0.000278731	0.000934057	0.0006473	0	5	0	
0.319333	0.00848868	-0.0148061	0.000690231	0.000545865	0	5	0	
0.3195	-0.0116738	0.0126903	0.000479426	0.000435849	0	5	0	
0.319667	0.0051711	-0.0132278	0.000351772	0.000299839	0	5	0	
0.319833	0.014948	0.0214931	0.000259369	0.000291181	0	5	0	
0.32	-0.017989	-0.00467402	0.000261646	0.000474578	0	5	0	
0.320167	-4.67086E-05	-0.0283969	0.000460832	0.000716911	0	5	0	
0.320333	0.0143437	0.0266042	0.000706515	0.000777418	0	5	0	
0.3205	-0.014247	0.00209786	0.000757681	0.000657476	0	5	0	
0.320667	0.00346841	-0.0173345	0.000605223	0.000396433	0	5	0	
0.320833	0.00366939	0.000304674	0.000454142	0.000336818	0	5	0	
0.321	0.00243377	0.0124546	0.000480338	0.000314575	0	5	0	
0.321167	-0.00940544	-0.00330203	0.000587778	0.0003048	0	5	0	
0.321333	0.00329293	-0.0152982	0.000612098	0.000280725	0	5	0	
0.3215	0.00319121	0.011632	0.000529193	0.00024633	0	5	0	
0.321667	-0.00245495	0.00775085	0.000509147	0.000336859	0	5	0	
0.321833	-0.00222744	-0.0169697	0.000589202	0.000311316	0	5	0	
0.322	0.00508139	-0.0025792	0.000664358	0.000358961	0	5	0	
0.322167	-0.00547019	0.0147658	0.000662301	0.000348481	0	5	0	
0.322333	0.00475349	-0.00898646	0.000642681	0.000338642	0	5	0	
0.3225	-0.0038722	-0.00663414	0.000649685	0.000256059	0	5	0	
0.322667	0.00123574	0.00896784	0.000631328	0.000170428	0	5	0	
0.322833	0.00646445	-0.00351212	0.000565865	0.00017308	0	5	0	
0.323	-0.00919226	0.000162068	0.000536153	0.000144296	0	5	0	
0.323167	0.00463277	-0.0127507	0.000618878	0.000159298	0	5	0	
0.323333	-0.000151629	0.0184235	0.000751829	0.000202377	0	5	0	
0.3235	-0.000503592	-0.0129532	0.000790011	0.000278573	0	5	0	
0.323667	0.00164269	-0.0018469	0.000699607	0.000262381	0	5	0	
0.323833	-0.00263015	0.000107789	0.000558874	0.00019596	0	5	0	
0.324	-0.00593031	0.00543745	0.000413282	0.000235572	0	5	0	
0.324167	0.0240007	-0.0127549	0.000339473	0.000281053	0	5	0	
0.324333	-0.0308707	0.00710332	0.000388043	0.00032501	0	5	0	
0.3245	0.0123526	-0.0113394	0.000614635	0.000279845	0	5	0	
0.324667	0.0153021	0.0165274	0.000881939	0.00026682	0	5	0	
